# Inner-scaled velocity profile
# Columns: y_plus    U_parallel_plus
3.9832992606e-01 3.9692854902e-01
1.1887924427e+00 1.1887924427e+00
1.9799514194e+00 1.9769135975e+00
2.7719943680e+00 2.7574805200e+00
3.5651283791e+00 3.5246649440e+00
4.3595770683e+00 4.2714815860e+00
5.1555775073e+00 4.9910063018e+00
5.9533773809e+00 5.6771642565e+00
6.7532325235e+00 6.3254586445e+00
7.5554049053e+00 6.9330170051e+00
8.3601610713e+00 7.4986894358e+00
9.1677709952e+00 8.0226232066e+00
9.9785072812e+00 8.5061145769e+00
1.0792644643e+01 8.9511046890e+00
1.1610459588e+01 9.3600715648e+00
1.2432230253e+01 9.7356374186e+00
1.3258236337e+01 1.0080575959e+01
1.4088759099e+01 1.0397539159e+01
1.4924081400e+01 1.0689143638e+01
1.5764487770e+01 1.0957776189e+01
1.6610264487e+01 1.1205716936e+01
1.7461699667e+01 1.1434989085e+01
1.8319083357e+01 1.1647489149e+01
1.9182707631e+01 1.1844864323e+01
2.0052866693e+01 1.2028642447e+01
2.0929856971e+01 1.2200134065e+01
2.1813977219e+01 1.2360557318e+01
2.2705528623e+01 1.2510955878e+01
2.3604814899e+01 1.2652307875e+01
2.4512142398e+01 1.2785447649e+01
2.5427820210e+01 1.2911153877e+01
2.6352160271e+01 1.3030078586e+01
2.7285477466e+01 1.3142828076e+01
2.8228089740e+01 1.3249909750e+01
2.9180318202e+01 1.3351808938e+01
3.0142487241e+01 1.3448944858e+01
3.1114924627e+01 1.3541734119e+01
3.2097961633e+01 1.3630546760e+01
3.3091933139e+01 1.3715751786e+01
3.4097177753e+01 1.3797668678e+01
3.5114037921e+01 1.3876600155e+01
3.6142860047e+01 1.3952794545e+01
3.7183994610e+01 1.4026485834e+01
3.8237796283e+01 1.4097870636e+01
3.9304624055e+01 1.4167143651e+01
4.0384841351e+01 1.4234474989e+01
4.1478816159e+01 1.4300038996e+01
4.2586921152e+01 1.4363992016e+01
4.3709533817e+01 1.4426490822e+01
4.4847036585e+01 1.4487667969e+01
4.5999816957e+01 1.4547650316e+01
4.7168267640e+01 1.4606546404e+01
4.8352786679e+01 1.4664466517e+01
4.9553777591e+01 1.4721507337e+01
5.0771649508e+01 1.4777764243e+01
5.2006817308e+01 1.4833318987e+01
5.3259701767e+01 1.4888254224e+01
5.4530729690e+01 1.4942642237e+01
5.5820334067e+01 1.4996550487e+01
5.7128954215e+01 1.5050021846e+01
5.8457035929e+01 1.5103076700e+01
5.9805031633e+01 1.5155711523e+01
6.1173400536e+01 1.5207927635e+01
6.2562608788e+01 1.5259739563e+01
6.3973129635e+01 1.5311182021e+01
6.5405443587e+01 1.5362298125e+01
6.6860038576e+01 1.5413148261e+01
6.8337410125e+01 1.5463804201e+01
6.9838061516e+01 1.5514340519e+01
7.1362503960e+01 1.5564811346e+01
7.2911256775e+01 1.5615250659e+01
7.4484847559e+01 1.5665679886e+01
7.6083812373e+01 1.5716124120e+01
7.7708695921e+01 1.5766603746e+01
7.9360051734e+01 1.5817123761e+01
8.1038442365e+01 1.5867672330e+01
8.2744439576e+01 1.5918250337e+01
8.4478624530e+01 1.5968879612e+01
8.6241587997e+01 1.6019584258e+01
8.8033930547e+01 1.6070370511e+01
8.9856262762e+01 1.6121244014e+01
9.1709205436e+01 1.6172229854e+01
9.3593389795e+01 1.6223377927e+01
9.5509457704e+01 1.6274742092e+01
9.7458061892e+01 1.6326356380e+01
9.9439866172e+01 1.6378218999e+01
1.0145554566e+02 1.6430300171e+01
1.0350578703e+02 1.6482571064e+01
1.0559128871e+02 1.6535032355e+01
1.0771276115e+02 1.6587690773e+01
1.0987092704e+02 1.6640524967e+01
1.1206652160e+02 1.6693511658e+01
1.1430029277e+02 1.6746663833e+01
1.1657300151e+02 1.6800008321e+01
1.1888542205e+02 1.6853567478e+01
1.2123834212e+02 1.6907383854e+01
1.2363256328e+02 1.6961516388e+01
1.2606890115e+02 1.7016002795e+01
1.2854818569e+02 1.7070875630e+01
1.3107126148e+02 1.7126196102e+01
1.3363898805e+02 1.7182009667e+01
1.3625224012e+02 1.7238303411e+01
1.3891190791e+02 1.7295017465e+01
1.4161889747e+02 1.7352054676e+01
1.4437413097e+02 1.7409357005e+01
1.4717854699e+02 1.7466946229e+01
1.5003310091e+02 1.7524874674e+01
1.5293876514e+02 1.7583205658e+01
1.5589652954e+02 1.7641985357e+01
1.5890740169e+02 1.7701198525e+01
1.6197240728e+02 1.7760755318e+01
1.6509259044e+02 1.7820557884e+01
1.6826901409e+02 1.7880589021e+01
1.7150276031e+02 1.7940954748e+01
1.7479493070e+02 1.8001784181e+01
1.7814664679e+02 1.8063094952e+01
1.8155905037e+02 1.8124777443e+01
1.8503330390e+02 1.8186754486e+01
1.8857059093e+02 1.8249008302e+01
1.9217211647e+02 1.8311467471e+01
1.9583910742e+02 1.8374104661e+01
1.9957281298e+02 1.8436965248e+01
2.0337450507e+02 1.8500115523e+01
2.0724547877e+02 1.8563536437e+01
2.1118705278e+02 1.8627122959e+01
2.1520056983e+02 1.8690845853e+01
2.1928739716e+02 1.8754746346e+01
2.2344892701e+02 1.8818894398e+01
2.2768657703e+02 1.8883247306e+01
2.3200179082e+02 1.8947663999e+01
2.3639603841e+02 1.9012159695e+01
2.4087081674e+02 1.9076811584e+01
2.4542765019e+02 1.9141712577e+01
2.5006809109e+02 1.9206893377e+01
2.5479372026e+02 1.9272313915e+01
2.5960614754e+02 1.9337950508e+01
2.6450701231e+02 1.9403586929e+01
2.6949798412e+02 1.9469119108e+01
2.7458076319e+02 1.9534784278e+01
2.7975708102e+02 1.9600750264e+01
2.8502870098e+02 1.9666932269e+01
2.9039741890e+02 1.9733137958e+01
2.9586506368e+02 1.9799083576e+01
3.0143349794e+02 1.9864821924e+01
3.0710461862e+02 1.9930679242e+01
3.1288035765e+02 1.9996561506e+01
3.1876268259e+02 2.0062304286e+01
3.2475359732e+02 2.0127871452e+01
3.3085514269e+02 2.0193259974e+01
3.3706939727e+02 2.0258467069e+01
3.4339847799e+02 2.0323126831e+01
3.4984454091e+02 2.0386989010e+01
3.5640978188e+02 2.0449899749e+01
3.6309643733e+02 2.0511805174e+01
3.6990678487e+02 2.0572578244e+01
3.7684314396e+02 2.0631912097e+01
3.8390787633e+02 2.0689625417e+01
3.9110338615e+02 2.0745686759e+01
3.9843211953e+02 2.0800042473e+01
4.0589656306e+02 2.0852556692e+01
4.1349924044e+02 2.0902868522e+01
4.2124270614e+02 2.0950577885e+01
4.2912953435e+02 2.0995479741e+01
4.3716230063e+02 2.1037340581e+01
4.4534355328e+02 2.1076016647e+01
4.5367577013e+02 2.1111304526e+01
4.6216129653e+02 2.1142985040e+01
4.7080225980e+02 2.1171027999e+01
4.7960045663e+02 2.1195524750e+01
4.8855721127e+02 2.1216678077e+01
4.9767320634e+02 2.1234816083e+01
5.0694829158e+02 2.1250202476e+01
5.1638128212e+02 2.1263030860e+01
5.2596976245e+02 2.1273432083e+01
5.3570991718e+02 2.1281575506e+01
5.4559641198e+02 2.1287761812e+01
5.5562234697e+02 2.1292399316e+01
5.6577930043e+02 2.1295838995e+01
5.7605747209e+02 2.1298354584e+01
5.8644592435e+02 2.1300168410e+01
5.9693290738e+02 2.1301473986e+01
6.0750624294e+02 2.1302388386e+01
6.1815373393e+02 2.1302994027e+01
6.2886356302e+02 2.1303386371e+01
6.3962464611e+02 2.1303637412e+01
6.5042691296e+02 2.1303801860e+01
6.6126149787e+02 2.1303926571e+01
6.7212083508e+02 2.1304025430e+01
6.8299866488e+02 2.1304111522e+01
6.9388996500e+02 2.1304179143e+01
7.0479082754e+02 2.1304228398e+01
7.1569830307e+02 2.1304263610e+01
7.2661023225e+02 2.1304293425e+01
7.3752508151e+02 2.1304324947e+01
7.4844179417e+02 2.1304361165e+01
7.5935966386e+02 2.1304394878e+01
7.7027823245e+02 2.1304424959e+01
7.8119721165e+02 2.1304452094e+01
7.9211642543e+02 2.1304478425e+01
8.0303576952e+02 2.1304503276e+01
8.1395518398e+02 2.1304527825e+01
8.2487463536e+02 2.1304551327e+01
8.3579410559e+02 2.1304574806e+01
8.4671358515e+02 2.1304597726e+01
8.5763306920e+02 2.1304621093e+01
8.6855255537e+02 2.1304644321e+01
8.7947204248e+02 2.1304668177e+01
8.9039153002e+02 2.1304691991e+01
9.0131101774e+02 2.1304716344e+01
9.1223050554e+02 2.1304740494e+01
9.2314999336e+02 2.1304764940e+01
9.3406948120e+02 2.1304789128e+01
9.4498896904e+02 2.1304813665e+01
9.5590845688e+02 2.1304838061e+01
9.6682794473e+02 2.1304862798e+01
9.7774743257e+02 2.1304887368e+01
9.8866692042e+02 2.1304912277e+01
9.9958640826e+02 2.1304937157e+01
1.0105058961e+03 2.1304962470e+01
1.0214253840e+03 2.1304987871e+01
1.0323448718e+03 2.1305013734e+01
1.0432643596e+03 2.1305039773e+01
1.0541838475e+03 2.1305066295e+01
1.0651033353e+03 2.1305092988e+01
1.0760228232e+03 2.1305120002e+01
1.0869423110e+03 2.1305147042e+01
1.0978617989e+03 2.1305174193e+01
1.1087812867e+03 2.1305201277e+01
1.1197007746e+03 2.1305228309e+01
1.1306202624e+03 2.1305255138e+01
1.1415397502e+03 2.1305281683e+01
1.1524592381e+03 2.1305307761e+01
1.1633787259e+03 2.1305333206e+01
1.1742982138e+03 2.1305357852e+01
1.1852177016e+03 2.1305381630e+01
1.1961371895e+03 2.1305404612e+01
1.2070566773e+03 2.1305426933e+01
1.2179761652e+03 2.1305448814e+01
1.2288956530e+03 2.1305470386e+01
1.2398151408e+03 2.1305491762e+01
1.2507346287e+03 2.1305512919e+01
1.2616541165e+03 2.1305533807e+01
1.2725736044e+03 2.1305554286e+01
1.2834930922e+03 2.1305574207e+01
1.2944125801e+03 2.1305593373e+01
1.3053320679e+03 2.1305611655e+01
1.3162515558e+03 2.1305628974e+01
1.3271710436e+03 2.1305645396e+01
1.3380905314e+03 2.1305661037e+01
1.3490100193e+03 2.1305676159e+01
1.3599295071e+03 2.1305691062e+01
1.3708489950e+03 2.1305706127e+01
1.3817684828e+03 2.1305721634e+01
1.3926879707e+03 2.1305737776e+01
1.4036074585e+03 2.1305754602e+01
1.4145269464e+03 2.1305772136e+01
1.4254464342e+03 2.1305790381e+01
1.4363659220e+03 2.1305809323e+01
1.4472854099e+03 2.1305828957e+01
1.4582048977e+03 2.1305849198e+01
1.4691243856e+03 2.1305870039e+01
1.4800438734e+03 2.1305891318e+01
1.4909633613e+03 2.1305913049e+01
1.5018828491e+03 2.1305935012e+01
1.5128023370e+03 2.1305957275e+01
1.5237218248e+03 2.1305979532e+01
1.5346413126e+03 2.1306001821e+01
1.5455608005e+03 2.1306023660e+01
1.5564802883e+03 2.1306045076e+01
1.5673997762e+03 2.1306065584e+01
1.5783192640e+03 2.1306085465e+01
1.5892387519e+03 2.1306104477e+01
1.6001582397e+03 2.1306123249e+01
1.6110777276e+03 2.1306141648e+01
1.6219972154e+03 2.1306160363e+01
1.6329167032e+03 2.1306179067e+01
1.6438361911e+03 2.1306198330e+01
1.6547556789e+03 2.1306217572e+01
1.6656751668e+03 2.1306237294e+01
1.6765946546e+03 2.1306256751e+01
1.6875141425e+03 2.1306276548e+01
1.6984336303e+03 2.1306295960e+01
1.7093531182e+03 2.1306315800e+01
1.7202726060e+03 2.1306335332e+01
1.7311920938e+03 2.1306355431e+01
1.7421115817e+03 2.1306375276e+01
1.7530310695e+03 2.1306395792e+01
1.7639505574e+03 2.1306416155e+01
1.7748700452e+03 2.1306437316e+01
1.7857895331e+03 2.1306458394e+01
1.7967090209e+03 2.1306480276e+01
1.8076285088e+03 2.1306502062e+01
1.8185479966e+03 2.1306524651e+01
1.8294674844e+03 2.1306547208e+01
1.8403869723e+03 2.1306570628e+01
1.8513064601e+03 2.1306594079e+01
1.8622259480e+03 2.1306618378e+01
1.8731454358e+03 2.1306642659e+01
1.8840649237e+03 2.1306667677e+01
1.8949844115e+03 2.1306692530e+01
1.9059038994e+03 2.1306717928e+01
1.9168233872e+03 2.1306742925e+01
1.9277428750e+03 2.1306768239e+01
1.9386623629e+03 2.1306792941e+01
1.9495818507e+03 2.1306817828e+01
1.9605013386e+03 2.1306841980e+01
1.9714208264e+03 2.1306866244e+01
1.9823403143e+03 2.1306889681e+01
1.9932598021e+03 2.1306913225e+01
2.0041792900e+03 2.1306936008e+01
2.0150987778e+03 2.1306959122e+01
2.0260182656e+03 2.1306981748e+01
2.0369377535e+03 2.1307005006e+01
2.0478572413e+03 2.1307027931e+01
2.0587767292e+03 2.1307051529e+01
2.0696962170e+03 2.1307074677e+01
2.0806157049e+03 2.1307098385e+01
2.0915351927e+03 2.1307121551e+01
2.1024546806e+03 2.1307145331e+01
2.1133741684e+03 2.1307168692e+01
2.1242936562e+03 2.1307192838e+01
2.1352131441e+03 2.1307216647e+01
2.1461326319e+03 2.1307241232e+01
2.1570521198e+03 2.1307265367e+01
2.1679716076e+03 2.1307290112e+01
2.1788910955e+03 2.1307314201e+01
2.1898105833e+03 2.1307338666e+01
2.2007300712e+03 2.1307362244e+01
2.2116495590e+03 2.1307385985e+01
2.2225690468e+03 2.1307408704e+01
2.2334885347e+03 2.1307431494e+01
2.2444080225e+03 2.1307453258e+01
2.2553275104e+03 2.1307475111e+01
2.2662469982e+03 2.1307496036e+01
2.2771664861e+03 2.1307517138e+01
2.2880859739e+03 2.1307537444e+01
2.2990054618e+03 2.1307558009e+01
2.3099249496e+03 2.1307577863e+01
2.3208444374e+03 2.1307598008e+01
2.3317639253e+03 2.1307617479e+01
2.3426834131e+03 2.1307637262e+01
2.3536029010e+03 2.1307656424e+01
2.3645223888e+03 2.1307675975e+01
2.3754418767e+03 2.1307695049e+01
2.3863613645e+03 2.1307714715e+01
2.3972808524e+03 2.1307734194e+01
2.4082003402e+03 2.1307754553e+01
2.4191198280e+03 2.1307775034e+01
2.4300393159e+03 2.1307796584e+01
2.4409588037e+03 2.1307818421e+01
2.4518782916e+03 2.1307841292e+01
2.4627977794e+03 2.1307864404e+01
2.4737172673e+03 2.1307888283e+01
2.4846367551e+03 2.1307912226e+01
2.4955562430e+03 2.1307936604e+01
2.5064757308e+03 2.1307960980e+01
2.5173952187e+03 2.1307985647e+01
2.5283147065e+03 2.1308010554e+01
2.5392341943e+03 2.1308035896e+01
2.5501536822e+03 2.1308061998e+01
2.5610731700e+03 2.1308088777e+01
2.5719926579e+03 2.1308116783e+01
2.5829121457e+03 2.1308145466e+01
2.5938316336e+03 2.1308175540e+01
2.6047511214e+03 2.1308205979e+01
2.6156706093e+03 2.1308237732e+01
2.6265900971e+03 2.1308269387e+01
2.6375095849e+03 2.1308302167e+01
2.6484290728e+03 2.1308334326e+01
2.6593485606e+03 2.1308367336e+01
2.6702680485e+03 2.1308399170e+01
2.6811875363e+03 2.1308431558e+01
2.6921070242e+03 2.1308462295e+01
2.7030265120e+03 2.1308493452e+01
2.7139459999e+03 2.1308522713e+01
2.7248654877e+03 2.1308552544e+01
2.7357849755e+03 2.1308580429e+01
2.7467044634e+03 2.1308609228e+01
2.7576239512e+03 2.1308635996e+01
2.7685434391e+03 2.1308663954e+01
2.7794629269e+03 2.1308689392e+01
2.7903824148e+03 2.1308715489e+01
2.8013019026e+03 2.1308736647e+01
2.8122213905e+03 2.1308753212e+01
