# Rotated Reynolds stress Morkovin's scaling
# Columns: y_plus    rho v''w''rotated/tau_wall
3.8773702413e-01 2.7781481524e-06
1.1571785444e+00 2.8179873131e-05
1.9272980036e+00 9.3247194498e-05
2.6982779270e+00 2.1029490279e-04
3.4703198979e+00 3.8116352692e-04
4.2436415854e+00 5.9441092953e-04
5.0184737565e+00 8.3568386182e-04
5.7950575092e+00 1.0904033125e-03
6.5736418747e+00 1.3514947549e-03
7.3544818564e+00 1.6144249182e-03
8.1378369110e+00 1.8803726137e-03
8.9239698326e+00 2.1513559330e-03
9.7131459760e+00 2.4332318291e-03
1.0505632749e+01 2.7283053543e-03
1.1301699307e+01 3.0357805704e-03
1.2101616390e+01 3.3476185203e-03
1.2905656257e+01 3.6566030344e-03
1.3714092688e+01 3.9576224104e-03
1.4527201024e+01 4.2538891422e-03
1.5345258226e+01 4.5509864570e-03
1.6168542961e+01 4.8555067706e-03
1.6997335681e+01 5.1671445831e-03
1.7831918720e+01 5.4813883443e-03
1.8672576387e+01 5.7876480210e-03
1.9519595060e+01 6.0773100836e-03
2.0373263283e+01 6.3454899150e-03
2.1233871868e+01 6.5968342662e-03
2.2101713990e+01 6.8416429292e-03
2.2977085288e+01 7.0964819323e-03
2.3860283967e+01 7.3785911593e-03
2.4751610897e+01 7.7036315676e-03
2.5651369717e+01 8.0766702570e-03
2.6559866940e+01 8.4901216651e-03
2.7477412056e+01 8.9243625771e-03
2.8404317634e+01 9.3569841301e-03
2.9340899435e+01 9.7689213568e-03
3.0287476515e+01 1.0150637995e-02
3.1244371336e+01 1.0500982582e-02
3.2211909873e+01 1.0824514442e-02
3.3190421728e+01 1.1125761613e-02
3.4180240242e+01 1.1407213597e-02
3.5181702607e+01 1.1669434987e-02
3.6195149980e+01 1.1914123217e-02
3.7220927603e+01 1.2143762673e-02
3.8259384918e+01 1.2363406484e-02
3.9310875686e+01 1.2582391554e-02
4.0375758108e+01 1.2815071972e-02
4.1454394947e+01 1.3076676350e-02
4.2547153652e+01 1.3378552415e-02
4.3654406483e+01 1.3723331181e-02
4.4776530636e+01 1.4104705433e-02
4.5913908375e+01 1.4512600874e-02
4.7066927159e+01 1.4939210919e-02
4.8235979776e+01 1.5377936750e-02
4.9421464475e+01 1.5817395326e-02
5.0623785105e+01 1.6239642531e-02
5.1843351247e+01 1.6629363729e-02
5.3080578360e+01 1.6985515198e-02
5.4335887919e+01 1.7322562613e-02
5.5609707556e+01 1.7664546210e-02
5.6902471212e+01 1.8033339387e-02
5.8214619280e+01 1.8437596160e-02
5.9546598757e+01 1.8866668957e-02
6.0898863395e+01 1.9298486455e-02
6.2271873857e+01 1.9714234173e-02
6.3666097873e+01 2.0114327856e-02
6.5082010401e+01 2.0521667977e-02
6.6520093784e+01 2.0967346309e-02
6.7980837922e+01 2.1477283723e-02
6.9464740431e+01 2.2071904330e-02
7.0972306819e+01 2.2764242479e-02
7.2504050652e+01 2.3552215746e-02
7.4060493737e+01 2.4419484443e-02
7.5642166290e+01 2.5346276965e-02
7.7249607125e+01 2.6307093204e-02
7.8883363833e+01 2.7272491532e-02
8.0543992970e+01 2.8218534568e-02
8.2232060247e+01 2.9134963512e-02
8.3948140720e+01 3.0010847425e-02
8.5692818992e+01 3.0825678893e-02
8.7466689403e+01 3.1565645559e-02
8.9270356242e+01 3.2244388937e-02
9.1104433945e+01 3.2895930481e-02
9.2969547311e+01 3.3546593048e-02
9.4866331710e+01 3.4187415946e-02
9.6795433299e+01 3.4773611986e-02
9.8757509249e+01 3.5271328948e-02
1.0075322796e+02 3.5671159754e-02
1.0278326929e+02 3.5978326084e-02
1.0484832481e+02 3.6223047528e-02
1.0694909798e+02 3.6437268429e-02
1.0908630446e+02 3.6629697050e-02
1.1126067231e+02 3.6796851058e-02
1.1347294226e+02 3.6947591169e-02
1.1572386793e+02 3.7089037048e-02
1.1801421613e+02 3.7191729448e-02
1.2034476708e+02 3.7255385150e-02
1.2271631472e+02 3.7366082790e-02
1.2512966693e+02 3.7589011776e-02
1.2758564584e+02 3.7853185436e-02
1.3008508813e+02 3.8019929950e-02
1.3262884523e+02 3.8064985959e-02
1.3521778371e+02 3.8051927756e-02
1.3785278552e+02 3.8003062424e-02
1.4053474831e+02 3.7899671273e-02
1.4326458570e+02 3.7760622037e-02
1.4604322764e+02 3.7672205157e-02
1.4887162071e+02 3.7672874565e-02
1.5175072843e+02 3.7688636684e-02
1.5468153159e+02 3.7608192296e-02
1.5766502861e+02 3.7395089087e-02
1.6070223585e+02 3.7123393704e-02
1.6379418795e+02 3.6900553943e-02
1.6694193823e+02 3.6764451806e-02
1.7014655900e+02 3.6646299062e-02
1.7340914194e+02 3.6525688305e-02
1.7673079848e+02 3.6440231561e-02
1.8011266020e+02 3.6384992477e-02
1.8355587914e+02 3.6281111825e-02
1.8706162828e+02 3.6104369648e-02
1.9063110189e+02 3.5983660482e-02
1.9426551594e+02 3.6035290752e-02
1.9796610854e+02 3.6267122910e-02
2.0173414033e+02 3.6703003410e-02
2.0557089493e+02 3.7369534401e-02
2.0947767937e+02 3.8203852453e-02
2.1345582454e+02 3.9157205189e-02
2.1750668562e+02 4.0133897156e-02
2.2163164260e+02 4.1004412674e-02
2.2583210068e+02 4.1673305000e-02
2.3010949078e+02 4.2117779766e-02
2.3446527005e+02 4.2149742241e-02
2.3890092232e+02 4.1636927809e-02
2.4341795865e+02 4.0881100711e-02
2.4801791781e+02 4.0074679980e-02
2.5270236682e+02 3.9268356051e-02
2.5747290150e+02 3.8573106411e-02
2.6233114696e+02 3.8080745733e-02
2.6727875823e+02 3.7851855443e-02
2.7231742076e+02 3.7796354593e-02
2.7744885101e+02 3.7745667394e-02
2.8267479708e+02 3.7650389588e-02
2.8799703921e+02 3.7375549871e-02
2.9341739051e+02 3.6820381668e-02
2.9893769745e+02 3.5888148702e-02
3.0455984059e+02 3.4443348741e-02
3.1028573518e+02 3.2668621745e-02
3.1611733179e+02 3.0893988070e-02
3.2205661702e+02 2.9051214728e-02
3.2810561415e+02 2.7344097938e-02
3.3426638381e+02 2.5769772613e-02
3.4054102473e+02 2.4213371175e-02
3.4693167437e+02 2.2629866638e-02
3.5344050967e+02 2.0933142052e-02
3.6006974768e+02 1.9337312301e-02
3.6682164618e+02 1.7799616143e-02
3.7369850410e+02 1.6158880507e-02
3.8070266166e+02 1.4740024945e-02
3.8783649994e+02 1.3399236254e-02
3.9510243939e+02 1.2102279790e-02
4.0250293658e+02 1.0844163010e-02
4.1004047808e+02 9.7658879629e-03
4.1771756960e+02 8.8487679640e-03
4.2553671823e+02 7.8403022455e-03
4.3350040448e+02 6.7542831773e-03
4.4161104030e+02 5.8276297222e-03
4.4987090866e+02 4.8653968973e-03
4.5828208032e+02 3.9510557736e-03
4.6684630417e+02 3.1063445705e-03
4.7556486928e+02 2.4354304882e-03
4.8443844007e+02 1.9664791682e-03
4.9346687031e+02 1.5258711779e-03
5.0264900663e+02 1.1799546438e-03
5.1198249775e+02 8.9244329147e-04
5.2146362975e+02 6.5733602241e-04
5.3108721016e+02 4.8111628198e-04
5.4084652259e+02 2.8608938900e-04
5.5073336928e+02 1.3794242306e-04
5.6073821057e+02 6.1912470568e-05
5.7085039974e+02 1.2087327951e-05
5.8105849942e+02 4.4403970231e-05
5.9135065524e+02 1.0895498480e-04
6.0171499445e+02 8.6020483227e-05
6.1214001398e+02 3.4216701362e-05
6.2261492451e+02 1.1992119124e-05
6.3312992358e+02 1.2528803698e-05
6.4367638126e+02 1.7537552515e-05
6.5424693300e+02 1.6708947842e-05
6.6483548556e+02 1.4379423483e-05
6.7543715021e+02 1.0506160945e-05
6.8604812299e+02 7.1960455351e-06
6.9666553289e+02 5.5928843866e-06
7.0728727802e+02 6.7719439521e-06
7.1791186556e+02 7.6112145916e-06
7.2853826695e+02 8.1150679901e-06
7.3916579460e+02 9.0582697934e-06
7.4979400256e+02 9.4366782988e-06
7.6042261022e+02 9.0211756675e-06
7.7105144622e+02 8.5248404115e-06
7.8168040906e+02 8.1652628294e-06
7.9230944040e+02 7.9270543313e-06
8.0293850768e+02 7.7443475319e-06
8.1356759330e+02 7.6374621019e-06
8.2419668801e+02 7.5543991720e-06
8.3482578710e+02 7.4969763509e-06
8.4545488823e+02 7.4173272196e-06
8.5608399030e+02 7.3270831134e-06
8.6671309277e+02 7.2081970337e-06
8.7734219542e+02 7.0928475531e-06
8.8797129815e+02 6.9803949170e-06
8.9860040090e+02 6.8929780770e-06
9.0922950367e+02 6.8171870010e-06
9.1985860644e+02 6.7575480687e-06
9.3048770921e+02 6.6973821625e-06
9.4111681199e+02 6.6418340184e-06
9.5174591476e+02 6.5795066584e-06
9.6237501753e+02 6.5200503360e-06
9.7300412031e+02 6.4567002983e-06
9.8363322308e+02 6.4011131970e-06
9.9426232586e+02 6.3418772700e-06
1.0048914286e+03 6.2868718115e-06
1.0155205314e+03 6.2219295386e-06
1.0261496342e+03 6.1603864466e-06
1.0367787369e+03 6.0902319750e-06
1.0474078397e+03 6.0266820752e-06
1.0580369425e+03 5.9533702234e-06
1.0686660453e+03 5.8831692149e-06
1.0792951480e+03 5.7958263963e-06
1.0899242508e+03 5.7021233209e-06
1.1005533536e+03 5.5831324296e-06
1.1111824564e+03 5.4552732601e-06
1.1218115591e+03 5.3106948680e-06
1.1324406619e+03 5.1702489701e-06
1.1430697647e+03 5.0257908160e-06
1.1536988675e+03 4.8890473146e-06
1.1643279702e+03 4.7475910496e-06
1.1749570730e+03 4.6090282036e-06
1.1855861758e+03 4.4635374537e-06
1.1962152786e+03 4.3189251910e-06
1.2068443813e+03 4.1690027827e-06
1.2174734841e+03 4.0208398130e-06
1.2281025869e+03 3.8697804196e-06
1.2387316896e+03 3.7220466765e-06
1.2493607924e+03 3.5753113999e-06
1.2599898952e+03 3.4353058454e-06
1.2706189980e+03 3.3002984419e-06
1.2812481007e+03 3.1759007860e-06
1.2918772035e+03 3.0640188996e-06
1.3025063063e+03 2.9726836927e-06
1.3131354091e+03 2.9037467646e-06
1.3237645118e+03 2.8587913092e-06
1.3343936146e+03 2.8302547492e-06
1.3450227174e+03 2.8131290754e-06
1.3556518202e+03 2.7968890430e-06
1.3662809229e+03 2.7800663136e-06
1.3769100257e+03 2.7540720994e-06
1.3875391285e+03 2.7220453255e-06
1.3981682312e+03 2.6766860322e-06
1.4087973340e+03 2.6234540024e-06
1.4194264368e+03 2.5545364433e-06
1.4300555396e+03 2.4751266073e-06
1.4406846423e+03 2.3758335667e-06
1.4513137451e+03 2.2610169300e-06
1.4619428479e+03 2.1196832939e-06
1.4725719507e+03 1.9580991620e-06
1.4832010534e+03 1.7671143806e-06
1.4938301562e+03 1.5608505026e-06
1.5044592590e+03 1.3343036944e-06
1.5150883618e+03 1.1090055617e-06
1.5257174645e+03 8.7785271246e-07
1.5363465673e+03 6.6025012894e-07
1.5469756701e+03 4.4056503026e-07
1.5576047728e+03 2.3591224535e-07
1.5682338756e+03 3.1823198535e-08
1.5788629784e+03 -1.4895273596e-07
1.5894920812e+03 -3.2012060188e-07
1.6001211839e+03 -4.6558918365e-07
1.6107502867e+03 -6.0948906349e-07
1.6213793895e+03 -7.4367949822e-07
1.6320084923e+03 -8.8793014115e-07
1.6426375950e+03 -1.0253780644e-06
1.6532666978e+03 -1.1588417896e-06
1.6638958006e+03 -1.2675372642e-06
1.6745249034e+03 -1.3514087245e-06
1.6851540061e+03 -1.4055645915e-06
1.6957831089e+03 -1.4380791249e-06
1.7064122117e+03 -1.4585997850e-06
1.7170413145e+03 -1.4749385501e-06
1.7276704172e+03 -1.4969565144e-06
1.7382995200e+03 -1.5251341608e-06
1.7489286228e+03 -1.5609786877e-06
1.7595577255e+03 -1.5999620669e-06
1.7701868283e+03 -1.6359352877e-06
1.7808159311e+03 -1.6678206515e-06
1.7914450339e+03 -1.6857534421e-06
1.8020741366e+03 -1.6974820787e-06
1.8127032394e+03 -1.6903698634e-06
1.8233323422e+03 -1.6814639747e-06
1.8339614450e+03 -1.6572899132e-06
1.8445905477e+03 -1.6426331830e-06
1.8552196505e+03 -1.6224731745e-06
1.8658487533e+03 -1.6209947278e-06
1.8764778561e+03 -1.6181630983e-06
1.8871069588e+03 -1.6350400617e-06
1.8977360616e+03 -1.6510642167e-06
1.9083651644e+03 -1.6882979701e-06
1.9189942671e+03 -1.7276848751e-06
1.9296233699e+03 -1.7903359361e-06
1.9402524727e+03 -1.8568631260e-06
1.9508815755e+03 -1.9455989758e-06
1.9615106782e+03 -2.0388864232e-06
1.9721397810e+03 -2.1528768243e-06
1.9827688838e+03 -2.2712937910e-06
1.9933979866e+03 -2.4054025543e-06
2.0040270893e+03 -2.5356880533e-06
2.0146561921e+03 -2.6682781260e-06
2.0252852949e+03 -2.7821866043e-06
2.0359143977e+03 -2.8850361572e-06
2.0465435004e+03 -2.9594940382e-06
2.0571726032e+03 -3.0191834150e-06
2.0678017060e+03 -3.0527746149e-06
2.0784308088e+03 -3.0803009575e-06
2.0890599115e+03 -3.0943329747e-06
2.0996890143e+03 -3.1177388152e-06
2.1103181171e+03 -3.1407446454e-06
2.1209472198e+03 -3.1794389629e-06
2.1315763226e+03 -3.2124835990e-06
2.1422054254e+03 -3.2441282905e-06
2.1528345282e+03 -3.2504881555e-06
2.1634636309e+03 -3.2391878343e-06
2.1740927337e+03 -3.1996758417e-06
2.1847218365e+03 -3.1489474821e-06
2.1953509393e+03 -3.0859016679e-06
2.2059800420e+03 -3.0295425027e-06
2.2166091448e+03 -2.9790165710e-06
2.2272382476e+03 -2.9487235608e-06
2.2378673504e+03 -2.9315722557e-06
2.2484964531e+03 -2.9355433706e-06
2.2591255559e+03 -2.9483321010e-06
2.2697546587e+03 -2.9784608581e-06
2.2803837614e+03 -3.0124267924e-06
2.2910128642e+03 -3.0632168948e-06
2.3016419670e+03 -3.1122012747e-06
2.3122710698e+03 -3.1762293115e-06
2.3229001725e+03 -3.2285366472e-06
2.3335292753e+03 -3.2912196136e-06
2.3441583781e+03 -3.3291327624e-06
2.3547874809e+03 -3.3719638008e-06
2.3654165836e+03 -3.3807493889e-06
2.3760456864e+03 -3.3973051656e-06
2.3866747892e+03 -3.3815021487e-06
2.3973038920e+03 -3.3857330872e-06
2.4079329947e+03 -3.3661648118e-06
2.4185620975e+03 -3.3821706576e-06
2.4291912003e+03 -3.3831091350e-06
2.4398203030e+03 -3.4287336701e-06
2.4504494058e+03 -3.4605292981e-06
2.4610785086e+03 -3.5352009594e-06
2.4717076114e+03 -3.5952037882e-06
2.4823367141e+03 -3.6905476033e-06
2.4929658169e+03 -3.7680142874e-06
2.5035949197e+03 -3.8572992795e-06
2.5142240225e+03 -3.9151758198e-06
2.5248531252e+03 -3.9542580795e-06
2.5354822280e+03 -3.9626775669e-06
2.5461113308e+03 -3.9412226409e-06
2.5567404336e+03 -3.9124981861e-06
2.5673695363e+03 -3.8480587212e-06
2.5779986391e+03 -3.8011812908e-06
2.5886277419e+03 -3.7017846061e-06
2.5992568447e+03 -3.6488971785e-06
2.6098859474e+03 -3.5240339588e-06
2.6205150502e+03 -3.4853555146e-06
2.6311441530e+03 -3.3498527262e-06
2.6417732557e+03 -3.3395132917e-06
2.6524023585e+03 -3.2014976304e-06
2.6630314613e+03 -3.2256293155e-06
2.6736605641e+03 -3.1133780125e-06
2.6842896668e+03 -3.2066152017e-06
2.6949187696e+03 -3.1997033474e-06
2.7055478724e+03 -3.4081298115e-06
2.7161769752e+03 -3.5651840627e-06
2.7268060779e+03 -3.8529400580e-06
2.7374351807e+03 -4.1051951570e-06
