# Rotated Reynolds stress Morkovin's scaling
# Columns: y_plus    rho u''w''rotated/tau_wall
3.8773702413e-01 -4.0470361748e-05
1.1571785444e+00 -3.1289439186e-04
1.9272980036e+00 -7.6787903632e-04
2.6982779270e+00 -1.3580786222e-03
3.4703198979e+00 -2.0667529452e-03
4.2436415854e+00 -2.8728235467e-03
5.0184737565e+00 -3.7237841319e-03
5.7950575092e+00 -4.5723150157e-03
6.5736418747e+00 -5.4219680048e-03
7.3544818564e+00 -6.3456243844e-03
8.1378369110e+00 -7.4442065976e-03
8.9239698326e+00 -8.7980626648e-03
9.7131459760e+00 -1.0432425072e-02
1.0505632749e+01 -1.2337891543e-02
1.1301699307e+01 -1.4488282501e-02
1.2101616390e+01 -1.6851956273e-02
1.2905656257e+01 -1.9364355389e-02
1.3714092688e+01 -2.1923154995e-02
1.4527201024e+01 -2.4394187864e-02
1.5345258226e+01 -2.6650897736e-02
1.6168542961e+01 -2.8598101707e-02
1.6997335681e+01 -3.0195987606e-02
1.7831918720e+01 -3.1455185470e-02
1.8672576387e+01 -3.2434871013e-02
1.9519595060e+01 -3.3216349516e-02
2.0373263283e+01 -3.3878238801e-02
2.1233871868e+01 -3.4468010196e-02
2.2101713990e+01 -3.5006805042e-02
2.2977085288e+01 -3.5498522122e-02
2.3860283967e+01 -3.5949996149e-02
2.4751610897e+01 -3.6379250193e-02
2.5651369717e+01 -3.6820468986e-02
2.6559866940e+01 -3.7310095227e-02
2.7477412056e+01 -3.7880561604e-02
2.8404317634e+01 -3.8551198245e-02
2.9340899435e+01 -3.9321783060e-02
3.0287476515e+01 -4.0161052222e-02
3.1244371336e+01 -4.1013192790e-02
3.2211909873e+01 -4.1810999330e-02
3.3190421728e+01 -4.2497097638e-02
3.4180240242e+01 -4.3037044371e-02
3.5181702607e+01 -4.3423224616e-02
3.6195149980e+01 -4.3660000315e-02
3.7220927603e+01 -4.3755346655e-02
3.8259384918e+01 -4.3721327907e-02
3.9310875686e+01 -4.3575839317e-02
4.0375758108e+01 -4.3333137092e-02
4.1454394947e+01 -4.3004009145e-02
4.2547153652e+01 -4.2595548086e-02
4.3654406483e+01 -4.2108338843e-02
4.4776530636e+01 -4.1539790076e-02
4.5913908375e+01 -4.0905202617e-02
4.7066927159e+01 -4.0240731869e-02
4.8235979776e+01 -3.9581205675e-02
4.9421464475e+01 -3.8947981420e-02
5.0623785105e+01 -3.8366646590e-02
5.1843351247e+01 -3.7882649267e-02
5.3080578360e+01 -3.7553660213e-02
5.4335887919e+01 -3.7417785593e-02
5.5609707556e+01 -3.7460481273e-02
5.6902471212e+01 -3.7618755937e-02
5.8214619280e+01 -3.7837326302e-02
5.9546598757e+01 -3.8109330155e-02
6.0898863395e+01 -3.8465875549e-02
6.2271873857e+01 -3.8940173256e-02
6.3666097873e+01 -3.9550928273e-02
6.5082010401e+01 -4.0298283470e-02
6.6520093784e+01 -4.1144156958e-02
6.7980837922e+01 -4.2027785710e-02
6.9464740431e+01 -4.2907971512e-02
7.0972306819e+01 -4.3763248020e-02
7.2504050652e+01 -4.4576195079e-02
7.4060493737e+01 -4.5335674236e-02
7.5642166290e+01 -4.6025056875e-02
7.7249607125e+01 -4.6611567912e-02
7.8883363833e+01 -4.7087439630e-02
8.0543992970e+01 -4.7519820659e-02
8.2232060247e+01 -4.8011462819e-02
8.3948140720e+01 -4.8606702480e-02
8.5692818992e+01 -4.9251988701e-02
8.7466689403e+01 -4.9859930338e-02
8.9270356242e+01 -5.0409288265e-02
9.1104433945e+01 -5.0945752009e-02
9.2969547311e+01 -5.1502256868e-02
9.4866331710e+01 -5.2056644529e-02
9.6795433299e+01 -5.2614544319e-02
9.8757509249e+01 -5.3192770491e-02
1.0075322796e+02 -5.3689547438e-02
1.0278326929e+02 -5.3911680708e-02
1.0484832481e+02 -5.3733661468e-02
1.0694909798e+02 -5.3242711368e-02
1.0908630446e+02 -5.2675455575e-02
1.1126067231e+02 -5.2225704921e-02
1.1347294226e+02 -5.1925502263e-02
1.1572386793e+02 -5.1722211432e-02
1.1801421613e+02 -5.1609798880e-02
1.2034476708e+02 -5.1610562504e-02
1.2271631472e+02 -5.1714450267e-02
1.2512966693e+02 -5.1833079281e-02
1.2758564584e+02 -5.1818222713e-02
1.3008508813e+02 -5.1587792149e-02
1.3262884523e+02 -5.1236240497e-02
1.3521778371e+02 -5.0967228205e-02
1.3785278552e+02 -5.0985314690e-02
1.4053474831e+02 -5.1330659948e-02
1.4326458570e+02 -5.1795035696e-02
1.4604322764e+02 -5.2131571186e-02
1.4887162071e+02 -5.2275008929e-02
1.5175072843e+02 -5.2274104393e-02
1.5468153159e+02 -5.2150992503e-02
1.5766502861e+02 -5.1883229668e-02
1.6070223585e+02 -5.1409797850e-02
1.6379418795e+02 -5.0723817146e-02
1.6694193823e+02 -5.0038439160e-02
1.7014655900e+02 -4.9413514378e-02
1.7340914194e+02 -4.8722793043e-02
1.7673079848e+02 -4.8057507957e-02
1.8011266020e+02 -4.7495258970e-02
1.8355587914e+02 -4.7112114203e-02
1.8706162828e+02 -4.7051769087e-02
1.9063110189e+02 -4.7254287122e-02
1.9426551594e+02 -4.7643843652e-02
1.9796610854e+02 -4.7975882494e-02
2.0173414033e+02 -4.8001665006e-02
2.0557089493e+02 -4.7775392606e-02
2.0947767937e+02 -4.7828955415e-02
2.1345582454e+02 -4.8497457345e-02
2.1750668562e+02 -4.9679026973e-02
2.2163164260e+02 -5.0754884567e-02
2.2583210068e+02 -5.0951914075e-02
2.3010949078e+02 -5.0450807982e-02
2.3446527005e+02 -4.9890402617e-02
2.3890092232e+02 -4.9580242055e-02
2.4341795865e+02 -4.9815197631e-02
2.4801791781e+02 -5.0391902955e-02
2.5270236682e+02 -5.0596976190e-02
2.5747290150e+02 -5.0308411583e-02
2.6233114696e+02 -5.0152904244e-02
2.6727875823e+02 -5.0192991839e-02
2.7231742076e+02 -5.0200288971e-02
2.7744885101e+02 -5.0314106696e-02
2.8267479708e+02 -5.0288849280e-02
2.8799703921e+02 -4.9732087554e-02
2.9341739051e+02 -4.8862152521e-02
2.9893769745e+02 -4.8032796192e-02
3.0455984059e+02 -4.7378063340e-02
3.1028573518e+02 -4.6497242070e-02
3.1611733179e+02 -4.4837373051e-02
3.2205661702e+02 -4.2560707361e-02
3.2810561415e+02 -4.0305797528e-02
3.3426638381e+02 -3.7695545393e-02
3.4054102473e+02 -3.4940496266e-02
3.4693167437e+02 -3.2710489444e-02
3.5344050967e+02 -3.0844532156e-02
3.6006974768e+02 -2.9480027375e-02
3.6682164618e+02 -2.8159273827e-02
3.7369850410e+02 -2.6587622265e-02
3.8070266166e+02 -2.5009534367e-02
3.8783649994e+02 -2.3298921516e-02
3.9510243939e+02 -2.1154441797e-02
4.0250293658e+02 -1.8563686876e-02
4.1004047808e+02 -1.6017449066e-02
4.1771756960e+02 -1.3711340535e-02
4.2553671823e+02 -1.1336528045e-02
4.3350040448e+02 -9.1500069887e-03
4.4161104030e+02 -7.4433141263e-03
4.4987090866e+02 -6.1659420819e-03
4.5828208032e+02 -5.2589903980e-03
4.6684630417e+02 -4.6498594549e-03
4.7556486928e+02 -4.1001193055e-03
4.8443844007e+02 -3.5055542536e-03
4.9346687031e+02 -2.7528830537e-03
5.0264900663e+02 -2.1569311242e-03
5.1198249775e+02 -1.7815280165e-03
5.2146362975e+02 -1.3572491171e-03
5.3108721016e+02 -9.1651169302e-04
5.4084652259e+02 -6.6011012778e-04
5.5073336928e+02 -6.0738735767e-04
5.6073821057e+02 -6.3498583053e-04
5.7085039974e+02 -6.8082999489e-04
5.8105849942e+02 -6.9178836259e-04
5.9135065524e+02 -6.7792719380e-04
6.0171499445e+02 -6.3815442986e-04
6.1214001398e+02 -5.5872000884e-04
6.2261492451e+02 -4.7869290283e-04
6.3312992358e+02 -4.3596923997e-04
6.4367638126e+02 -4.0471151403e-04
6.5424693300e+02 -3.7577168456e-04
6.6483548556e+02 -3.5314766623e-04
6.7543715021e+02 -3.2740833730e-04
6.8604812299e+02 -2.9933460245e-04
6.9666553289e+02 -2.7303141178e-04
7.0728727802e+02 -2.4909388259e-04
7.1791186556e+02 -2.2830979737e-04
7.2853826695e+02 -2.1150679496e-04
7.3916579460e+02 -1.9788036944e-04
7.4979400256e+02 -1.8515351188e-04
7.6042261022e+02 -1.7294950436e-04
7.7105144622e+02 -1.6167871864e-04
7.8168040906e+02 -1.5136348617e-04
7.9230944040e+02 -1.4195396577e-04
8.0293850768e+02 -1.3340861304e-04
8.1356759330e+02 -1.2568882739e-04
8.2419668801e+02 -1.1873845588e-04
8.3482578710e+02 -1.1249263148e-04
8.4545488823e+02 -1.0686311492e-04
8.5608399030e+02 -1.0176359942e-04
8.6671309277e+02 -9.7103895237e-05
8.7734219542e+02 -9.2811910156e-05
8.8797129815e+02 -8.8827436936e-05
8.9860040090e+02 -8.5113010608e-05
9.0922950367e+02 -8.1641101060e-05
9.1985860644e+02 -7.8396663202e-05
9.3048770921e+02 -7.5362829297e-05
9.4111681199e+02 -7.2529649401e-05
9.5174591476e+02 -6.9882591080e-05
9.6237501753e+02 -6.7414280623e-05
9.7300412031e+02 -6.5113807161e-05
9.8363322308e+02 -6.2974749998e-05
9.9426232586e+02 -6.0985514913e-05
1.0048914286e+03 -5.9133443132e-05
1.0155205314e+03 -5.7399805106e-05
1.0261496342e+03 -5.5765325861e-05
1.0367787369e+03 -5.4211086952e-05
1.0474078397e+03 -5.2724942649e-05
1.0580369425e+03 -5.1300517960e-05
1.0686660453e+03 -4.9940379459e-05
1.0792951480e+03 -4.8648375863e-05
1.0899242508e+03 -4.7431118869e-05
1.1005533536e+03 -4.6287137367e-05
1.1111824564e+03 -4.5211412766e-05
1.1218115591e+03 -4.4189452887e-05
1.1324406619e+03 -4.3207093447e-05
1.1430697647e+03 -4.2247942015e-05
1.1536988675e+03 -4.1303029817e-05
1.1643279702e+03 -4.0367671786e-05
1.1749570730e+03 -3.9449058161e-05
1.1855861758e+03 -3.8557711324e-05
1.1962152786e+03 -3.7710236773e-05
1.2068443813e+03 -3.6916897381e-05
1.2174734841e+03 -3.6185234629e-05
1.2281025869e+03 -3.5513605390e-05
1.2387316896e+03 -3.4896675927e-05
1.2493607924e+03 -3.4326666578e-05
1.2599898952e+03 -3.3792784351e-05
1.2706189980e+03 -3.3287013581e-05
1.2812481007e+03 -3.2794524934e-05
1.2918772035e+03 -3.2306545353e-05
1.3025063063e+03 -3.1806173171e-05
1.3131354091e+03 -3.1290636014e-05
1.3237645118e+03 -3.0752648052e-05
1.3343936146e+03 -3.0207356387e-05
1.3450227174e+03 -2.9661741415e-05
1.3556518202e+03 -2.9140232153e-05
1.3662809229e+03 -2.8645530409e-05
1.3769100257e+03 -2.8192570810e-05
1.3875391285e+03 -2.7772006426e-05
1.3981682312e+03 -2.7391946288e-05
1.4087973340e+03 -2.7040720993e-05
1.4194264368e+03 -2.6727461138e-05
1.4300555396e+03 -2.6442044461e-05
1.4406846423e+03 -2.6193018022e-05
1.4513137451e+03 -2.5968419741e-05
1.4619428479e+03 -2.5774074719e-05
1.4725719507e+03 -2.5595983675e-05
1.4832010534e+03 -2.5438401345e-05
1.4938301562e+03 -2.5286241306e-05
1.5044592590e+03 -2.5144488774e-05
1.5150883618e+03 -2.5000453278e-05
1.5257174645e+03 -2.4863851606e-05
1.5363465673e+03 -2.4726019197e-05
1.5469756701e+03 -2.4600170975e-05
1.5576047728e+03 -2.4478697981e-05
1.5682338756e+03 -2.4374877577e-05
1.5788629784e+03 -2.4279468697e-05
1.5894920812e+03 -2.4203817885e-05
1.6001211839e+03 -2.4138270186e-05
1.6107502867e+03 -2.4095198998e-05
1.6213793895e+03 -2.4069737019e-05
1.6320084923e+03 -2.4074788101e-05
1.6426375950e+03 -2.4106031642e-05
1.6532666978e+03 -2.4165337334e-05
1.6638958006e+03 -2.4241874869e-05
1.6745249034e+03 -2.4323732370e-05
1.6851540061e+03 -2.4400162846e-05
1.6957831089e+03 -2.4454718637e-05
1.7064122117e+03 -2.4485922277e-05
1.7170413145e+03 -2.4481325496e-05
1.7276704172e+03 -2.4452752942e-05
1.7382995200e+03 -2.4395891747e-05
1.7489286228e+03 -2.4332520082e-05
1.7595577255e+03 -2.4262693280e-05
1.7701868283e+03 -2.4206952368e-05
1.7808159311e+03 -2.4161341198e-05
1.7914450339e+03 -2.4135683172e-05
1.8020741366e+03 -2.4120768220e-05
1.8127032394e+03 -2.4117425792e-05
1.8233323422e+03 -2.4118154350e-05
1.8339614450e+03 -2.4120312054e-05
1.8445905477e+03 -2.4120836072e-05
1.8552196505e+03 -2.4113599844e-05
1.8658487533e+03 -2.4097816077e-05
1.8764778561e+03 -2.4065571806e-05
1.8871069588e+03 -2.4020754102e-05
1.8977360616e+03 -2.3958672407e-05
1.9083651644e+03 -2.3888959100e-05
1.9189942671e+03 -2.3809705424e-05
1.9296233699e+03 -2.3732910190e-05
1.9402524727e+03 -2.3656757657e-05
1.9508815755e+03 -2.3592766140e-05
1.9615106782e+03 -2.3537671077e-05
1.9721397810e+03 -2.3501377435e-05
1.9827688838e+03 -2.3478440663e-05
1.9933979866e+03 -2.3475793638e-05
2.0040270893e+03 -2.3483035920e-05
2.0146561921e+03 -2.3501996193e-05
2.0252852949e+03 -2.3517632669e-05
2.0359143977e+03 -2.3530433117e-05
2.0465435004e+03 -2.3527151351e-05
2.0571726032e+03 -2.3511269325e-05
2.0678017060e+03 -2.3474412115e-05
2.0784308088e+03 -2.3421982417e-05
2.0890599115e+03 -2.3350648133e-05
2.0996890143e+03 -2.3266477086e-05
2.1103181171e+03 -2.3171197614e-05
2.1209472198e+03 -2.3068406109e-05
2.1315763226e+03 -2.2962484518e-05
2.1422054254e+03 -2.2851316342e-05
2.1528345282e+03 -2.2742621545e-05
2.1634636309e+03 -2.2629130383e-05
2.1740927337e+03 -2.2523594789e-05
2.1847218365e+03 -2.2413581546e-05
2.1953509393e+03 -2.2316473729e-05
2.2059800420e+03 -2.2215601904e-05
2.2166091448e+03 -2.2132695303e-05
2.2272382476e+03 -2.2049878867e-05
2.2378673504e+03 -2.1992088141e-05
2.2484964531e+03 -2.1943697061e-05
2.2591255559e+03 -2.1929308083e-05
2.2697546587e+03 -2.1938811047e-05
2.2803837614e+03 -2.1991792514e-05
2.2910128642e+03 -2.2087331328e-05
2.3016419670e+03 -2.2232315645e-05
2.3122710698e+03 -2.2435168929e-05
2.3229001725e+03 -2.2680591880e-05
2.3335292753e+03 -2.2989308628e-05
2.3441583781e+03 -2.3320784830e-05
2.3547874809e+03 -2.3714297579e-05
2.3654165836e+03 -2.4101071427e-05
2.3760456864e+03 -2.4540879799e-05
2.3866747892e+03 -2.4931249717e-05
2.3973038920e+03 -2.5354462755e-05
2.4079329947e+03 -2.5673598596e-05
2.4185620975e+03 -2.6000208550e-05
2.4291912003e+03 -2.6167997320e-05
2.4398203030e+03 -2.6323960858e-05
2.4504494058e+03 -2.6278600961e-05
2.4610785086e+03 -2.6216673042e-05
2.4717076114e+03 -2.5934484214e-05
2.4823367141e+03 -2.5652717314e-05
2.4929658169e+03 -2.5161716999e-05
2.5035949197e+03 -2.4705408577e-05
2.5142240225e+03 -2.4073005575e-05
2.5248531252e+03 -2.3512491305e-05
2.5354822280e+03 -2.2822614430e-05
2.5461113308e+03 -2.2237794595e-05
2.5567404336e+03 -2.1586774868e-05
2.5673695363e+03 -2.1071298295e-05
2.5779986391e+03 -2.0574754919e-05
2.5886277419e+03 -2.0239507363e-05
2.5992568447e+03 -2.0030389755e-05
2.6098859474e+03 -2.0001218109e-05
2.6205150502e+03 -2.0226202680e-05
2.6311441530e+03 -2.0642808843e-05
2.6417732557e+03 -2.1442937455e-05
2.6524023585e+03 -2.2419603771e-05
2.6630314613e+03 -2.3842621113e-05
2.6736605641e+03 -2.5347403781e-05
2.6842896668e+03 -2.7190906394e-05
2.6949187696e+03 -2.8895442093e-05
2.7055478724e+03 -3.0604495129e-05
2.7161769752e+03 -3.1878560490e-05
2.7268060779e+03 -3.2720212141e-05
2.7374351807e+03 -3.3060999591e-05
