# Reynolds stress Morkovin's scaling 
# Columns: y_plus    rho w''w''/tau_wall
3.9100267708e-01 1.1074618611e-02
1.1669246953e+00 8.3988034103e-02
1.9435303622e+00 2.0216476527e-01
2.7210037404e+00 3.4701263963e-01
3.4995481111e+00 5.0594148269e-01
4.2793829765e+00 6.6946444257e-01
5.0607410474e+00 8.3073664020e-01
5.8438654524e+00 9.8468324923e-01
6.6290073199e+00 1.1282421739e+00
7.4164238012e+00 1.2595674445e+00
8.2063765381e+00 1.3781164903e+00
8.9991305383e+00 1.4839152175e+00
9.7949533913e+00 1.5776529118e+00
1.0594114757e+01 1.6601267107e+00
1.1396886058e+01 1.7323671861e+00
1.2203540314e+01 1.7952791880e+00
1.3014352078e+01 1.8498214214e+00
1.3829597436e+01 1.8968151838e+00
1.4649554046e+01 1.9371150788e+00
1.5474501205e+01 1.9714744169e+00
1.6304719923e+01 2.0006477281e+00
1.7140493017e+01 2.0252889804e+00
1.7982105198e+01 2.0460193508e+00
1.8829843169e+01 2.0633684482e+00
1.9683995721e+01 2.0778115987e+00
2.0544853828e+01 2.0897184493e+00
2.1412710751e+01 2.0993611446e+00
2.2287862134e+01 2.1069176417e+00
2.3170606107e+01 2.1125305944e+00
2.4061243385e+01 2.1163499276e+00
2.4960077373e+01 2.1185393323e+00
2.5867414268e+01 2.1192693621e+00
2.6783563163e+01 2.1186954983e+00
2.7708836155e+01 2.1169677904e+00
2.8643548447e+01 2.1142234543e+00
2.9588018458e+01 2.1106077649e+00
3.0542567932e+01 2.1062638584e+00
3.1507522046e+01 2.1013481595e+00
3.2483209521e+01 2.0960031005e+00
3.3469962736e+01 2.0903508985e+00
3.4468117838e+01 2.0844613576e+00
3.5478014859e+01 2.0783630664e+00
3.6499997830e+01 2.0720517664e+00
3.7534414901e+01 2.0655317547e+00
3.8581618456e+01 2.0588049699e+00
3.9641965236e+01 2.0518620157e+00
4.0715816460e+01 2.0446794340e+00
4.1803537945e+01 2.0372517829e+00
4.2905500235e+01 2.0295907198e+00
4.4022078725e+01 2.0217360019e+00
4.5153653789e+01 2.0137588734e+00
4.6300610910e+01 2.0057348816e+00
4.7463340810e+01 1.9976762635e+00
4.8642239585e+01 1.9895259854e+00
4.9837708839e+01 1.9812186337e+00
5.1050155822e+01 1.9727448979e+00
5.2279993564e+01 1.9641579370e+00
5.3527641025e+01 1.9555103672e+00
5.4793523226e+01 1.9468011255e+00
5.6078071405e+01 1.9379760307e+00
5.7381723156e+01 1.9289718441e+00
5.8704922581e+01 1.9197556458e+00
6.0048120441e+01 1.9103633049e+00
6.1411774312e+01 1.9008895657e+00
6.2796348734e+01 1.8914428891e+00
6.4202315379e+01 1.8820789188e+00
6.5630153203e+01 1.8727984241e+00
6.7080348613e+01 1.8635895936e+00
6.8553395635e+01 1.8544587404e+00
7.0049796075e+01 1.8453747294e+00
7.1570059699e+01 1.8362267552e+00
7.3114704399e+01 1.8268537127e+00
7.4684256376e+01 1.8171478082e+00
7.6279250313e+01 1.8071167287e+00
7.7900229560e+01 1.7968805368e+00
7.9547746322e+01 1.7865645002e+00
8.1222361842e+01 1.7762930366e+00
8.2924646595e+01 1.7661953207e+00
8.4655180482e+01 1.7562989666e+00
8.6414553026e+01 1.7464375401e+00
8.8203363577e+01 1.7363830832e+00
9.0022221510e+01 1.7259912413e+00
9.1871746439e+01 1.7152154340e+00
9.3752568424e+01 1.7040853673e+00
9.5665328185e+01 1.6927120200e+00
9.7610677324e+01 1.6812183322e+00
9.9589278544e+01 1.6696756484e+00
1.0160180588e+02 1.6580371624e+00
1.0364894491e+02 1.6463325933e+00
1.0573139302e+02 1.6347717195e+00
1.0784985962e+02 1.6234665372e+00
1.1000506638e+02 1.6123658675e+00
1.1219774750e+02 1.6014967989e+00
1.1442864993e+02 1.5910013727e+00
1.1669853366e+02 1.5810723534e+00
1.1900817195e+02 1.5717778947e+00
1.2135835159e+02 1.5629353659e+00
1.2374987321e+02 1.5540850944e+00
1.2618355149e+02 1.5447296496e+00
1.2866021550e+02 1.5347495223e+00
1.3118070893e+02 1.5242678809e+00
1.3374589042e+02 1.5132952110e+00
1.3635663383e+02 1.5018967547e+00
1.3901382852e+02 1.4902188562e+00
1.4171837970e+02 1.4783790272e+00
1.4447120871e+02 1.4663920777e+00
1.4727325332e+02 1.4542422894e+00
1.5012546808e+02 1.4420808979e+00
1.5302882462e+02 1.4300541611e+00
1.5598431200e+02 1.4179829186e+00
1.5899293705e+02 1.4056314008e+00
1.6205572468e+02 1.3928421830e+00
1.6517371825e+02 1.3795715120e+00
1.6834797995e+02 1.3657297169e+00
1.7157959112e+02 1.3511338756e+00
1.7486965264e+02 1.3354794328e+00
1.7821928531e+02 1.3189740633e+00
1.8162963021e+02 1.3022893630e+00
1.8510184912e+02 1.2854629216e+00
1.8863712487e+02 1.2683767300e+00
1.9223666179e+02 1.2514825233e+00
1.9590168612e+02 1.2350632550e+00
1.9963344636e+02 1.2184248428e+00
2.0343321380e+02 1.2008573150e+00
2.0730228285e+02 1.1825111793e+00
2.1124197156e+02 1.1634887611e+00
2.1525362201e+02 1.1434490503e+00
2.1933860083e+02 1.1224945134e+00
2.2349829959e+02 1.1014149801e+00
2.2773413535e+02 1.0805282031e+00
2.3204755109e+02 1.0598308840e+00
2.3644001621e+02 1.0394403472e+00
2.4091302705e+02 1.0192008805e+00
2.4546810739e+02 9.9834476825e-01
2.5010680897e+02 9.7622937763e-01
2.5483071201e+02 9.5288397982e-01
2.5964142574e+02 9.2845449778e-01
2.6454058900e+02 9.0334077831e-01
2.6952987074e+02 8.7764622974e-01
2.7461097059e+02 8.5132601298e-01
2.7978561950e+02 8.2451386157e-01
2.8505558025e+02 7.9700801894e-01
2.9042264812e+02 7.6869940235e-01
2.9588865145e+02 7.3964073139e-01
3.0145545230e+02 7.0995899114e-01
3.0712494704e+02 6.7962815696e-01
3.1289906706e+02 6.4886672936e-01
3.1877977936e+02 6.1763636753e-01
3.2476908727e+02 5.8609038250e-01
3.3086903110e+02 5.5494397634e-01
3.3708168886e+02 5.2450085092e-01
3.4340917693e+02 4.9465335983e-01
3.4985365079e+02 4.6503399918e-01
3.5641730571e+02 4.3516017710e-01
3.6310237742e+02 4.0551547659e-01
3.6991114271e+02 3.7626274505e-01
3.7684591986e+02 3.4720423782e-01
3.8390906882e+02 3.1829356312e-01
3.9110299071e+02 2.8999639313e-01
3.9843012636e+02 2.6275295972e-01
4.0589295306e+02 2.3725893710e-01
4.1349397829e+02 2.1322257272e-01
4.2123572889e+02 1.9014333770e-01
4.2912073304e+02 1.6822500853e-01
4.3715149217e+02 1.4793534274e-01
4.4533043852e+02 1.2942751968e-01
4.5365987429e+02 1.1251815913e-01
4.6214188770e+02 9.6942038272e-02
4.7077824235e+02 8.2552033794e-02
4.7957023817e+02 6.9789454678e-02
4.8851854519e+02 5.8737655663e-02
4.9762301594e+02 4.9158425756e-02
5.0688248733e+02 4.0807700484e-02
5.1629458829e+02 3.3430954533e-02
5.2585557360e+02 2.6987609847e-02
5.3556020708e+02 2.1724838009e-02
5.4540171575e+02 1.7535814104e-02
5.5537183282e+02 1.4171802519e-02
5.6546093828e+02 1.1495555353e-02
5.7565829575e+02 9.3154396547e-03
5.8595237151e+02 7.5624285170e-03
5.9633121136e+02 6.1472604465e-03
6.0678284256e+02 5.0433306920e-03
6.1729566514e+02 4.1844030426e-03
6.2785879892e+02 3.5123338774e-03
6.3846235889e+02 2.9786164225e-03
6.4909764242e+02 2.5506060307e-03
6.5975722295e+02 2.2072493031e-03
6.7043495588e+02 1.9289644890e-03
6.8112591136e+02 1.7060762336e-03
6.9182625336e+02 1.5203266510e-03
7.0253308669e+02 1.3630555910e-03
7.1324429176e+02 1.2344810866e-03
7.2395836319e+02 1.1257674248e-03
7.3467426374e+02 1.0314477611e-03
7.4539130004e+02 9.4880894824e-04
7.5610902239e+02 8.7621945044e-04
7.6682714778e+02 8.1294634131e-04
7.7754550345e+02 7.5775617847e-04
7.8826398703e+02 7.0926853832e-04
7.9898253968e+02 6.6654226270e-04
8.0970112858e+02 6.2880608280e-04
8.2041973597e+02 5.9537946328e-04
8.3113835253e+02 5.6571255868e-04
8.4185697350e+02 5.3929594318e-04
8.5257559653e+02 5.1572383673e-04
8.6329422051e+02 4.9462222522e-04
8.7401284489e+02 4.7570892637e-04
8.8473146946e+02 4.5871761528e-04
8.9545009410e+02 4.4345351310e-04
9.0616871877e+02 4.2972157919e-04
9.1688734345e+02 4.1738347057e-04
9.2760596814e+02 4.0629407730e-04
9.3832459282e+02 3.9635739379e-04
9.4904321751e+02 3.8746442415e-04
9.5976184220e+02 3.7954282300e-04
9.7048046689e+02 3.7249538602e-04
9.8119909158e+02 3.6625023021e-04
9.9191771626e+02 3.6070742291e-04
1.0026363410e+03 3.5579544094e-04
1.0133549656e+03 3.5142530572e-04
1.0240735903e+03 3.4754392604e-04
1.0347922150e+03 3.4408578535e-04
1.0455108397e+03 3.4101678976e-04
1.0562294644e+03 3.3828571294e-04
1.0669480891e+03 3.3586721504e-04
1.0776667138e+03 3.3371659393e-04
1.0883853385e+03 3.3181492228e-04
1.0991039631e+03 3.3012150243e-04
1.1098225878e+03 3.2862329715e-04
1.1205412125e+03 3.2728286375e-04
1.1312598372e+03 3.2609539496e-04
1.1419784619e+03 3.2502911015e-04
1.1526970866e+03 3.2409054224e-04
1.1634157113e+03 3.2325336250e-04
1.1741343360e+03 3.2253409472e-04
1.1848529607e+03 3.2190856146e-04
1.1955715853e+03 3.2140228032e-04
1.2062902100e+03 3.2099169774e-04
1.2170088347e+03 3.2070773083e-04
1.2277274594e+03 3.2051838314e-04
1.2384460841e+03 3.2044799603e-04
1.2491647088e+03 3.2044662433e-04
1.2598833335e+03 3.2053146068e-04
1.2706019582e+03 3.2064319006e-04
1.2813205828e+03 3.2080660582e-04
1.2920392075e+03 3.2096493341e-04
1.3027578322e+03 3.2115811550e-04
1.3134764569e+03 3.2133208806e-04
1.3241950816e+03 3.2154153831e-04
1.3349137063e+03 3.2173321516e-04
1.3456323310e+03 3.2197622999e-04
1.3563509557e+03 3.2221385030e-04
1.3670695803e+03 3.2252207062e-04
1.3777882050e+03 3.2283101878e-04
1.3885068297e+03 3.2321576462e-04
1.3992254544e+03 3.2359098923e-04
1.4099440791e+03 3.2403153941e-04
1.4206627038e+03 3.2444247662e-04
1.4313813285e+03 3.2490512882e-04
1.4420999532e+03 3.2532434954e-04
1.4528185779e+03 3.2579312414e-04
1.4635372025e+03 3.2621748214e-04
1.4742558272e+03 3.2669735743e-04
1.4849744519e+03 3.2713476368e-04
1.4956930766e+03 3.2763275296e-04
1.5064117013e+03 3.2808885123e-04
1.5171303260e+03 3.2860955419e-04
1.5278489507e+03 3.2908612432e-04
1.5385675754e+03 3.2962508758e-04
1.5492862000e+03 3.3010725760e-04
1.5600048247e+03 3.3063914487e-04
1.5707234494e+03 3.3109302032e-04
1.5814420741e+03 3.3158139194e-04
1.5921606988e+03 3.3197353798e-04
1.6028793235e+03 3.3239416617e-04
1.6135979482e+03 3.3271170364e-04
1.6243165729e+03 3.3306159699e-04
1.6350351976e+03 3.3330749327e-04
1.6457538222e+03 3.3359223110e-04
1.6564724469e+03 3.3377542446e-04
1.6671910716e+03 3.3400966592e-04
1.6779096963e+03 3.3415484766e-04
1.6886283210e+03 3.3437373586e-04
1.6993469457e+03 3.3452364086e-04
1.7100655704e+03 3.3476941165e-04
1.7207841951e+03 3.3495673571e-04
1.7315028197e+03 3.3524588586e-04
1.7422214444e+03 3.3546869220e-04
1.7529400691e+03 3.3578517317e-04
1.7636586938e+03 3.3602077772e-04
1.7743773185e+03 3.3634560052e-04
1.7850959432e+03 3.3658430551e-04
1.7958145679e+03 3.3691844376e-04
1.8065331926e+03 3.3716519649e-04
1.8172518173e+03 3.3751071689e-04
1.8279704419e+03 3.3775771948e-04
1.8386890666e+03 3.3809610617e-04
1.8494076913e+03 3.3831621835e-04
1.8601263160e+03 3.3861798553e-04
1.8708449407e+03 3.3878641850e-04
1.8815635654e+03 3.3903660316e-04
1.8922821901e+03 3.3915021895e-04
1.9030008148e+03 3.3935352715e-04
1.9137194394e+03 3.3942067355e-04
1.9244380641e+03 3.3958143384e-04
1.9351566888e+03 3.3959999110e-04
1.9458753135e+03 3.3970554400e-04
1.9565939382e+03 3.3965628746e-04
1.9673125629e+03 3.3968276439e-04
1.9780311876e+03 3.3954599540e-04
1.9887498123e+03 3.3948097086e-04
1.9994684369e+03 3.3925825115e-04
2.0101870616e+03 3.3911600880e-04
2.0209056863e+03 3.3883463489e-04
2.0316243110e+03 3.3864801085e-04
2.0423429357e+03 3.3834058455e-04
2.0530615604e+03 3.3813461104e-04
2.0637801851e+03 3.3781714190e-04
2.0744988098e+03 3.3760173229e-04
2.0852174345e+03 3.3728482164e-04
2.0959360591e+03 3.3707857566e-04
2.1066546838e+03 3.3679185598e-04
2.1173733085e+03 3.3663595575e-04
2.1280919332e+03 3.3642712825e-04
2.1388105579e+03 3.3637442401e-04
2.1495291826e+03 3.3629499717e-04
2.1602478073e+03 3.3639785624e-04
2.1709664320e+03 3.3649377000e-04
2.1816850566e+03 3.3679780439e-04
2.1924036813e+03 3.3710789952e-04
2.2031223060e+03 3.3765766810e-04
2.2138409307e+03 3.3822911698e-04
2.2245595554e+03 3.3908976000e-04
2.2352781801e+03 3.3999928723e-04
2.2459968048e+03 3.4126633538e-04
2.2567154295e+03 3.4261367720e-04
2.2674340542e+03 3.4439212229e-04
2.2781526788e+03 3.4627422619e-04
2.2888713035e+03 3.4865749869e-04
2.2995899282e+03 3.5115640642e-04
2.3103085529e+03 3.5422070706e-04
2.3210271776e+03 3.5740025530e-04
2.3317458023e+03 3.6119945925e-04
2.3424644270e+03 3.6509875306e-04
2.3531830517e+03 3.6965639585e-04
2.3639016763e+03 3.7428262686e-04
2.3746203010e+03 3.7958630281e-04
2.3853389257e+03 3.8491344028e-04
2.3960575504e+03 3.9091941042e-04
2.4067761751e+03 3.9690205092e-04
2.4174947998e+03 4.0355876952e-04
2.4282134245e+03 4.1016509276e-04
2.4389320492e+03 4.1745042437e-04
2.4496506739e+03 4.2469854708e-04
2.4603692985e+03 4.3264894700e-04
2.4710879232e+03 4.4062610594e-04
2.4818065479e+03 4.4934655982e-04
2.4925251726e+03 4.5821167712e-04
2.5032437973e+03 4.6787379171e-04
2.5139624220e+03 4.7784864462e-04
2.5246810467e+03 4.8867460313e-04
2.5353996714e+03 5.0001892671e-04
2.5461182960e+03 5.1225466474e-04
2.5568369207e+03 5.2524031818e-04
2.5675555454e+03 5.3913470966e-04
2.5782741701e+03 5.5402131969e-04
2.5889927948e+03 5.6979279725e-04
2.5997114195e+03 5.8677012290e-04
2.6104300442e+03 6.0452805982e-04
2.6211486689e+03 6.2360875098e-04
2.6318672935e+03 6.4323924862e-04
2.6425859182e+03 6.6412859254e-04
2.6533045429e+03 6.8517354264e-04
2.6640231676e+03 7.0713222117e-04
2.6747417923e+03 7.2866267831e-04
2.6854604170e+03 7.5035557434e-04
2.6961790417e+03 7.7083532390e-04
2.7068976664e+03 7.9020089601e-04
2.7176162911e+03 8.0743337250e-04
2.7283349157e+03 8.2177718528e-04
2.7390535404e+03 8.3320573654e-04
2.7497721651e+03 8.3992550523e-04
2.7604907898e+03 8.4429658926e-04
