# Reynolds stress Morkovin's scaling 
# Columns: y_plus    rho u''u''/tau_wall
3.9100267708e-01 2.3538353938e-02
1.1669246953e+00 2.0692095844e-01
1.9435303622e+00 5.6379655839e-01
2.7210037404e+00 1.0768649416e+00
3.4995481111e+00 1.7139762682e+00
4.2793829765e+00 2.4298927158e+00
5.0607410474e+00 3.1747294832e+00
5.8438654524e+00 3.9028376362e+00
6.6290073199e+00 4.5789563246e+00
7.4164238012e+00 5.1799098534e+00
8.2063765381e+00 5.6938944377e+00
8.9991305383e+00 6.1179153235e+00
9.7949533913e+00 6.4552848097e+00
1.0594114757e+01 6.7129732386e+00
1.1396886058e+01 6.8998406976e+00
1.2203540314e+01 7.0252411731e+00
1.3014352078e+01 7.0983908408e+00
1.3829597436e+01 7.1278847153e+00
1.4649554046e+01 7.1215242312e+00
1.5474501205e+01 7.0861361145e+00
1.6304719923e+01 7.0275592382e+00
1.7140493017e+01 6.9506836908e+00
1.7982105198e+01 6.8596001465e+00
1.8829843169e+01 6.7577370910e+00
1.9683995721e+01 6.6479514697e+00
2.0544853828e+01 6.5325747584e+00
2.1412710751e+01 6.4134546946e+00
2.2287862134e+01 6.2920304019e+00
2.3170606107e+01 6.1694153604e+00
2.4061243385e+01 6.0464831610e+00
2.4960077373e+01 5.9239454661e+00
2.5867414268e+01 5.8024326210e+00
2.6783563163e+01 5.6825534161e+00
2.7708836155e+01 5.5648783348e+00
2.8643548447e+01 5.4498837370e+00
2.9588018458e+01 5.3378950945e+00
3.0542567932e+01 5.2291212944e+00
3.1507522046e+01 5.1237010104e+00
3.2483209521e+01 5.0217602496e+00
3.3469962736e+01 4.9233876862e+00
3.4468117838e+01 4.8286423674e+00
3.5478014859e+01 4.7375154434e+00
3.6499997830e+01 4.6499377953e+00
3.7534414901e+01 4.5657440992e+00
3.8581618456e+01 4.4847289696e+00
3.9641965236e+01 4.4066791166e+00
4.0715816460e+01 4.3314719895e+00
4.1803537945e+01 4.2590626206e+00
4.2905500235e+01 4.1894767965e+00
4.4022078725e+01 4.1227104345e+00
4.5153653789e+01 4.0587186888e+00
4.6300610910e+01 3.9973845853e+00
4.7463340810e+01 3.9385827768e+00
4.8642239585e+01 3.8821659922e+00
4.9837708839e+01 3.8279964671e+00
5.1050155822e+01 3.7758971004e+00
5.2279993564e+01 3.7257172373e+00
5.3527641025e+01 3.6773275588e+00
5.4793523226e+01 3.6306183404e+00
5.6078071405e+01 3.5854303113e+00
5.7381723156e+01 3.5416242524e+00
5.8704922581e+01 3.4991074502e+00
6.0048120441e+01 3.4578791007e+00
6.1411774312e+01 3.4179458614e+00
6.2796348734e+01 3.3793260776e+00
6.4202315379e+01 3.3420398644e+00
6.5630153203e+01 3.3061577678e+00
6.7080348613e+01 3.2716905771e+00
6.8553395635e+01 3.2385782120e+00
7.0049796075e+01 3.2067099170e+00
7.1570059699e+01 3.1760205518e+00
7.3114704399e+01 3.1464933582e+00
7.4684256376e+01 3.1181140924e+00
7.6279250313e+01 3.0907460047e+00
7.7900229560e+01 3.0641539320e+00
7.9547746322e+01 3.0380838559e+00
8.1222361842e+01 3.0124506346e+00
8.2924646595e+01 2.9872928439e+00
8.4655180482e+01 2.9626700929e+00
8.6414553026e+01 2.9385874680e+00
8.8203363577e+01 2.9150343505e+00
9.0022221510e+01 2.8920120667e+00
9.1871746439e+01 2.8695983841e+00
9.3752568424e+01 2.8477803072e+00
9.5665328185e+01 2.8263209939e+00
9.7610677324e+01 2.8049496319e+00
9.9589278544e+01 2.7836328937e+00
1.0160180588e+02 2.7623590295e+00
1.0364894491e+02 2.7410140517e+00
1.0573139302e+02 2.7194416920e+00
1.0784985962e+02 2.6975503360e+00
1.1000506638e+02 2.6754129099e+00
1.1219774750e+02 2.6532620506e+00
1.1442864993e+02 2.6311240440e+00
1.1669853366e+02 2.6088448620e+00
1.1900817195e+02 2.5863805331e+00
1.2135835159e+02 2.5638053411e+00
1.2374987321e+02 2.5412018367e+00
1.2618355149e+02 2.5187798249e+00
1.2866021550e+02 2.4966999307e+00
1.3118070893e+02 2.4750316567e+00
1.3374589042e+02 2.4538388532e+00
1.3635663383e+02 2.4330377536e+00
1.3901382852e+02 2.4123217389e+00
1.4171837970e+02 2.3911764834e+00
1.4447120871e+02 2.3693909924e+00
1.4727325332e+02 2.3472387016e+00
1.5012546808e+02 2.3248242986e+00
1.5302882462e+02 2.3020023943e+00
1.5598431200e+02 2.2783927107e+00
1.5899293705e+02 2.2537164492e+00
1.6205572468e+02 2.2281285866e+00
1.6517371825e+02 2.2018467227e+00
1.6834797995e+02 2.1749730395e+00
1.7157959112e+02 2.1479280263e+00
1.7486965264e+02 2.1211241563e+00
1.7821928531e+02 2.0946494313e+00
1.8162963021e+02 2.0680331246e+00
1.8510184912e+02 2.0407936589e+00
1.8863712487e+02 2.0129844186e+00
1.9223666179e+02 1.9848453824e+00
1.9590168612e+02 1.9565917593e+00
1.9963344636e+02 1.9282141675e+00
2.0343321380e+02 1.8999217298e+00
2.0730228285e+02 1.8715522426e+00
2.1124197156e+02 1.8423472509e+00
2.1525362201e+02 1.8119741900e+00
2.1933860083e+02 1.7806196246e+00
2.2349829959e+02 1.7485634907e+00
2.2773413535e+02 1.7157517807e+00
2.3204755109e+02 1.6823492127e+00
2.3644001621e+02 1.6486095021e+00
2.4091302705e+02 1.6145048227e+00
2.4546810739e+02 1.5795930099e+00
2.5010680897e+02 1.5441424551e+00
2.5483071201e+02 1.5081557432e+00
2.5964142574e+02 1.4716847791e+00
2.6454058900e+02 1.4348971247e+00
2.6952987074e+02 1.3971350399e+00
2.7461097059e+02 1.3584778750e+00
2.7978561950e+02 1.3192840730e+00
2.8505558025e+02 1.2794578605e+00
2.9042264812e+02 1.2398619955e+00
2.9588865145e+02 1.2001581746e+00
3.0145545230e+02 1.1597380435e+00
3.0712494704e+02 1.1193767103e+00
3.1289906706e+02 1.0790303268e+00
3.1877977936e+02 1.0379207232e+00
3.2476908727e+02 9.9565507228e-01
3.3086903110e+02 9.5230300164e-01
3.3708168886e+02 9.0777695668e-01
3.4340917693e+02 8.6223213335e-01
3.4985365079e+02 8.1614586146e-01
3.5641730571e+02 7.6929911400e-01
3.6310237742e+02 7.2158071074e-01
3.6991114271e+02 6.7337153337e-01
3.7684591986e+02 6.2517344695e-01
3.8390906882e+02 5.7708798852e-01
3.9110299071e+02 5.2957848394e-01
3.9843012636e+02 4.8259315120e-01
4.0589295306e+02 4.3655829934e-01
4.1349397829e+02 3.9093515921e-01
4.2123572889e+02 3.4624346271e-01
4.2912073304e+02 3.0347852349e-01
4.3715149217e+02 2.6325717399e-01
4.4533043852e+02 2.2595689707e-01
4.5365987429e+02 1.9183409098e-01
4.6214188770e+02 1.6135796523e-01
4.7077824235e+02 1.3461048420e-01
4.7957023817e+02 1.1133857583e-01
4.8851854519e+02 9.1371412830e-02
4.9762301594e+02 7.4350838454e-02
5.0688248733e+02 6.0210647309e-02
5.1629458829e+02 4.8765431454e-02
5.2585557360e+02 3.9553804259e-02
5.3556020708e+02 3.2153982395e-02
5.4540171575e+02 2.6179137936e-02
5.5537183282e+02 2.1513614281e-02
5.6546093828e+02 1.7916009703e-02
5.7565829575e+02 1.5062114760e-02
5.8595237151e+02 1.2750306112e-02
5.9633121136e+02 1.0900329958e-02
6.0678284256e+02 9.3469798810e-03
6.1729566514e+02 8.0400846712e-03
6.2785879892e+02 6.9840758566e-03
6.3846235889e+02 6.1185960514e-03
6.4909764242e+02 5.3977373551e-03
6.5975722295e+02 4.7889373249e-03
6.7043495588e+02 4.2700073673e-03
6.8112591136e+02 3.8411515970e-03
6.9182625336e+02 3.4590431349e-03
7.0253308669e+02 3.1220573948e-03
7.1324429176e+02 2.8327136835e-03
7.2395836319e+02 2.5815609188e-03
7.3467426374e+02 2.3605881178e-03
7.4539130004e+02 2.1657609490e-03
7.5610902239e+02 1.9936801170e-03
7.6682714778e+02 1.8406847766e-03
7.7754550345e+02 1.7039131987e-03
7.8826398703e+02 1.5813680974e-03
7.9898253968e+02 1.4711896508e-03
8.0970112858e+02 1.3718421156e-03
8.2041973597e+02 1.2820311869e-03
8.3113835253e+02 1.2005941915e-03
8.4185697350e+02 1.1265760263e-03
8.5257559653e+02 1.0591125142e-03
8.6329422051e+02 9.9751357864e-04
8.7401284489e+02 9.4113787395e-04
8.8473146946e+02 8.8948326292e-04
8.9545009410e+02 8.4204969876e-04
9.0616871877e+02 7.9844887085e-04
9.1688734345e+02 7.5829260340e-04
9.2760596814e+02 7.2128907946e-04
9.3832459282e+02 6.8713584967e-04
9.4904321751e+02 6.5560166387e-04
9.5976184220e+02 6.2642661019e-04
9.7048046689e+02 5.9942298409e-04
9.8119909158e+02 5.7436839321e-04
9.9191771626e+02 5.5112369039e-04
1.0026363410e+03 5.2950524145e-04
1.0133549656e+03 5.0941145677e-04
1.0240735903e+03 4.9068335740e-04
1.0347922150e+03 4.7324606781e-04
1.0455108397e+03 4.5695994219e-04
1.0562294644e+03 4.4177871944e-04
1.0669480891e+03 4.2757812206e-04
1.0776667138e+03 4.1433254544e-04
1.0883853385e+03 4.0192664628e-04
1.0991039631e+03 3.9034934269e-04
1.1098225878e+03 3.7949350052e-04
1.1205412125e+03 3.6935644044e-04
1.1312598372e+03 3.5983424408e-04
1.1419784619e+03 3.5092707990e-04
1.1526970866e+03 3.4253268311e-04
1.1634157113e+03 3.3465198514e-04
1.1741343360e+03 3.2718398533e-04
1.1848529607e+03 3.2012899119e-04
1.1955715853e+03 3.1339538818e-04
1.2062902100e+03 3.0699520119e-04
1.2170088347e+03 3.0086008359e-04
1.2277274594e+03 2.9501817341e-04
1.2384460841e+03 2.8941916743e-04
1.2491647088e+03 2.8409578564e-04
1.2598833335e+03 2.7900525531e-04
1.2706019582e+03 2.7417639497e-04
1.2813205828e+03 2.6957155481e-04
1.2920392075e+03 2.6521304900e-04
1.3027578322e+03 2.6106864658e-04
1.3134764569e+03 2.5715406656e-04
1.3241950816e+03 2.5344765584e-04
1.3349137063e+03 2.4996797493e-04
1.3456323310e+03 2.4671335035e-04
1.3563509557e+03 2.4370226968e-04
1.3670695803e+03 2.4093169366e-04
1.3777882050e+03 2.3839434920e-04
1.3885068297e+03 2.3607396526e-04
1.3992254544e+03 2.3394968377e-04
1.4099440791e+03 2.3201064267e-04
1.4206627038e+03 2.3023443269e-04
1.4313813285e+03 2.2861417940e-04
1.4420999532e+03 2.2711975577e-04
1.4528185779e+03 2.2574360878e-04
1.4635372025e+03 2.2445022729e-04
1.4742558272e+03 2.2323777909e-04
1.4849744519e+03 2.2207365689e-04
1.4956930766e+03 2.2096499173e-04
1.5064117013e+03 2.1988464680e-04
1.5171303260e+03 2.1884892676e-04
1.5278489507e+03 2.1783831256e-04
1.5385675754e+03 2.1687816532e-04
1.5492862000e+03 2.1595470117e-04
1.5600048247e+03 2.1509739198e-04
1.5707234494e+03 2.1429020234e-04
1.5814420741e+03 2.1355859999e-04
1.5921606988e+03 2.1287763394e-04
1.6028793235e+03 2.1226745741e-04
1.6135979482e+03 2.1169697121e-04
1.6243165729e+03 2.1118565548e-04
1.6350351976e+03 2.1070182636e-04
1.6457538222e+03 2.1026674896e-04
1.6564724469e+03 2.0985177303e-04
1.6671910716e+03 2.0948056066e-04
1.6779096963e+03 2.0912992606e-04
1.6886283210e+03 2.0882432424e-04
1.6993469457e+03 2.0854368725e-04
1.7100655704e+03 2.0830722354e-04
1.7207841951e+03 2.0809310554e-04
1.7315028197e+03 2.0791221182e-04
1.7422214444e+03 2.0774269250e-04
1.7529400691e+03 2.0759220175e-04
1.7636586938e+03 2.0744549095e-04
1.7743773185e+03 2.0731085589e-04
1.7850959432e+03 2.0717853799e-04
1.7958145679e+03 2.0705393025e-04
1.8065331926e+03 2.0692891128e-04
1.8172518173e+03 2.0680702291e-04
1.8279704419e+03 2.0668380038e-04
1.8386890666e+03 2.0656431070e-04
1.8494076913e+03 2.0644795900e-04
1.8601263160e+03 2.0633962445e-04
1.8708449407e+03 2.0623891466e-04
1.8815635654e+03 2.0614402374e-04
1.8922821901e+03 2.0605140401e-04
1.9030008148e+03 2.0594804275e-04
1.9137194394e+03 2.0583265955e-04
1.9244380641e+03 2.0568480722e-04
1.9351566888e+03 2.0551761849e-04
1.9458753135e+03 2.0530767335e-04
1.9565939382e+03 2.0509165471e-04
1.9673125629e+03 2.0484026633e-04
1.9780311876e+03 2.0461367325e-04
1.9887498123e+03 2.0436407236e-04
1.9994684369e+03 2.0416899111e-04
2.0101870616e+03 2.0394776247e-04
2.0209056863e+03 2.0379316874e-04
2.0316243110e+03 2.0358546883e-04
2.0423429357e+03 2.0344197563e-04
2.0530615604e+03 2.0320802211e-04
2.0637801851e+03 2.0304032202e-04
2.0744988098e+03 2.0275255490e-04
2.0852174345e+03 2.0254710009e-04
2.0959360591e+03 2.0220247960e-04
2.1066546838e+03 2.0196345208e-04
2.1173733085e+03 2.0157448674e-04
2.1280919332e+03 2.0132047298e-04
2.1388105579e+03 2.0092533817e-04
2.1495291826e+03 2.0070453849e-04
2.1602478073e+03 2.0037198426e-04
2.1709664320e+03 2.0024545237e-04
2.1816850566e+03 2.0004213787e-04
2.1924036813e+03 2.0005624190e-04
2.2031223060e+03 2.0004225820e-04
2.2138409307e+03 2.0025436834e-04
2.2245595554e+03 2.0052309608e-04
2.2352781801e+03 2.0103454209e-04
2.2459968048e+03 2.0171811344e-04
2.2567154295e+03 2.0265240849e-04
2.2674340542e+03 2.0388483025e-04
2.2781526788e+03 2.0535355838e-04
2.2888713035e+03 2.0724138340e-04
2.2995899282e+03 2.0931217969e-04
2.3103085529e+03 2.1188498129e-04
2.3210271776e+03 2.1451604097e-04
2.3317458023e+03 2.1765952425e-04
2.3424644270e+03 2.2065671066e-04
2.3531830517e+03 2.2410855273e-04
2.3639016763e+03 2.2715722314e-04
2.3746203010e+03 2.3056118582e-04
2.3853389257e+03 2.3328961123e-04
2.3960575504e+03 2.3626803936e-04
2.4067761751e+03 2.3833261283e-04
2.4174947998e+03 2.4058611494e-04
2.4282134245e+03 2.4177179607e-04
2.4389320492e+03 2.4316036366e-04
2.4496506739e+03 2.4342510077e-04
2.4603692985e+03 2.4397483649e-04
2.4710879232e+03 2.4343217379e-04
2.4818065479e+03 2.4330952380e-04
2.4925251726e+03 2.4220575197e-04
2.5032437973e+03 2.4169110535e-04
2.5139624220e+03 2.4037513157e-04
2.5246810467e+03 2.3982161887e-04
2.5353996714e+03 2.3870529846e-04
2.5461182960e+03 2.3849772659e-04
2.5568369207e+03 2.3802590453e-04
2.5675555454e+03 2.3856115916e-04
2.5782741701e+03 2.3921946878e-04
2.5889927948e+03 2.4094736099e-04
2.5997114195e+03 2.4333215153e-04
2.6104300442e+03 2.4684866075e-04
2.6211486689e+03 2.5174155406e-04
2.6318672935e+03 2.5784433657e-04
2.6425859182e+03 2.6616659834e-04
2.6533045429e+03 2.7571960266e-04
2.6640231676e+03 2.8818487513e-04
2.6747417923e+03 3.0161298806e-04
2.6854604170e+03 3.1796416461e-04
2.6961790417e+03 3.3437985096e-04
2.7068976664e+03 3.5244065672e-04
2.7176162911e+03 3.6888318141e-04
2.7283349157e+03 3.8424915177e-04
2.7390535404e+03 3.9604659372e-04
2.7497721651e+03 4.0356782326e-04
2.7604907898e+03 4.0743126499e-04
