# Turbulent kinetic energy budget term: TT (triple-correlation transport)
# Definition: TT = -\partial_{x_j} [ 0.5 \bar{\rho} \widetilde{u_i'' u_i'' u_j''} ]
# Columns: y_plus    TT^+
3.8646263475e-01 -1.7979081182e-03
1.1533752036e+00 1.7598656139e-03
1.9209634831e+00 1.1315113113e-02
2.6894093988e+00 2.6773969908e-02
3.4589138713e+00 4.2318630236e-02
4.2296938542e+00 5.2032581898e-02
5.0019793562e+00 5.1879348031e-02
5.7760106829e+00 4.1706608454e-02
6.5520360469e+00 2.4117603524e-02
7.3303096133e+00 2.8459661176e-03
8.1110899864e+00 -1.8564444499e-02
8.8946390963e+00 -3.7583448956e-02
9.6812214258e+00 -5.2751673240e-02
1.0471103504e+01 -6.3669405328e-02
1.1264553601e+01 -7.0460521014e-02
1.2061841567e+01 -7.3685691177e-02
1.2863238767e+01 -7.3956790412e-02
1.3669018081e+01 -7.2026391621e-02
1.4479453944e+01 -6.8535792523e-02
1.5294822408e+01 -6.4108452859e-02
1.6115401223e+01 -5.9163537975e-02
1.6941469919e+01 -5.4043264174e-02
1.7773309905e+01 -4.8947537482e-02
1.8611204551e+01 -4.4041864245e-02
1.9455439297e+01 -3.9395677109e-02
2.0306301738e+01 -3.5046606227e-02
2.1164081729e+01 -3.0982226926e-02
2.2029071483e+01 -2.7176895338e-02
2.2901565666e+01 -2.3598156894e-02
2.3781861504e+01 -2.0250596492e-02
2.4670258877e+01 -1.7172612435e-02
2.5567060427e+01 -1.4382363236e-02
2.6472571660e+01 -1.1858239722e-02
2.7387101046e+01 -9.5556577796e-03
2.8310960130e+01 -7.4640084819e-03
2.9244463634e+01 -5.5824652687e-03
3.0187929564e+01 -3.9142091825e-03
3.1141679324e+01 -2.4550813555e-03
3.2106037817e+01 -1.2234898363e-03
3.3081333562e+01 -2.0601620295e-04
3.4067898803e+01 6.5496183210e-04
3.5066069625e+01 1.4492950906e-03
3.6076186064e+01 2.2099377982e-03
3.7098592226e+01 2.9107075863e-03
3.8133636406e+01 3.5060009284e-03
3.9181671201e+01 3.9944983290e-03
4.0243053635e+01 4.3966976973e-03
4.1318145279e+01 4.7404123730e-03
4.2407312375e+01 5.0198670423e-03
4.3510925957e+01 5.1949709521e-03
4.4629361984e+01 5.2091907639e-03
4.5763001462e+01 5.0609432136e-03
4.6912230577e+01 4.8173335358e-03
4.8077440826e+01 4.5910087688e-03
4.9259029150e+01 4.4640477359e-03
5.0457398069e+01 4.4445499928e-03
5.1672955819e+01 4.4813948709e-03
5.2906116493e+01 4.5331664427e-03
5.4157300179e+01 4.5766505375e-03
5.5426933107e+01 4.6119098122e-03
5.6715447790e+01 4.6497260205e-03
5.8023283173e+01 4.6618581881e-03
5.9350884784e+01 4.5782773427e-03
6.0698704885e+01 4.3761365185e-03
6.2067202624e+01 4.1074017141e-03
6.3456844193e+01 3.8433669476e-03
6.4868102990e+01 3.6058004564e-03
6.6301459772e+01 3.3692697541e-03
6.7757402829e+01 3.1007330475e-03
6.9236428142e+01 2.8059608635e-03
7.0739039556e+01 2.5631621700e-03
7.2265748952e+01 2.4429076755e-03
7.3817076418e+01 2.3894592613e-03
7.5393550430e+01 2.3121514970e-03
7.6995708031e+01 2.2033441972e-03
7.8624095011e+01 2.1055897921e-03
8.0279266098e+01 2.0458584726e-03
8.1961785143e+01 2.0194106302e-03
8.3672225313e+01 1.9783059944e-03
8.5411169286e+01 1.9056715212e-03
8.7179209453e+01 1.8732857184e-03
8.8976948115e+01 1.9168296234e-03
9.0804997688e+01 2.0013535752e-03
9.2663980918e+01 2.1200803040e-03
9.4554531086e+01 2.2380861736e-03
9.6477292228e+01 2.2762536104e-03
9.8432919351e+01 2.2029254924e-03
1.0042207866e+02 2.0755644849e-03
1.0244544778e+02 1.9470311117e-03
1.0450371600e+02 1.7844790118e-03
1.0659758449e+02 1.5551746237e-03
1.0872776654e+02 1.2931315473e-03
1.1089498782e+02 1.0313913391e-03
1.1309998661e+02 8.7219004469e-04
1.1534351409e+02 8.8268219838e-04
1.1762633451e+02 9.3977325680e-04
1.1994922556e+02 9.3625648330e-04
1.2231297854e+02 8.6836826285e-04
1.2471839870e+02 7.5057751676e-04
1.2716630546e+02 6.3121257227e-04
1.2965753273e+02 5.2901606424e-04
1.3219292918e+02 4.3197505987e-04
1.3477335850e+02 3.5649904315e-04
1.3739969976e+02 3.9428011286e-04
1.4007284764e+02 5.3239050869e-04
1.4279371277e+02 6.1198735416e-04
1.4556322205e+02 6.1352449580e-04
1.4838231894e+02 5.8618127894e-04
1.5125196379e+02 4.6435083963e-04
1.5417313418e+02 2.5069739315e-04
1.5714682523e+02 -3.9476278539e-05
1.6017404996e+02 -3.5347923226e-04
1.6325583964e+02 -6.3006314698e-04
1.6639324409e+02 -8.0656437978e-04
1.6958733211e+02 -9.1502068417e-04
1.7283919180e+02 -9.5722078037e-04
1.7614993094e+02 -9.0928114914e-04
1.7952067737e+02 -8.1227116630e-04
1.8295257936e+02 -7.6023598194e-04
1.8644680602e+02 -8.5224794037e-04
1.9000454771e+02 -1.0136920522e-03
1.9362701641e+02 -1.0519971355e-03
1.9731544613e+02 -1.0379544184e-03
2.0107109340e+02 -1.0954382708e-03
2.0489523759e+02 -1.2140193031e-03
2.0878918146e+02 -1.3268356334e-03
2.1275425151e+02 -1.2965606234e-03
2.1679179849e+02 -1.0904707351e-03
2.2090319782e+02 -8.3457412083e-04
2.2508985010e+02 -5.9859579809e-04
2.2935318154e+02 -4.1753942644e-04
2.3369464451e+02 -3.7078136004e-04
2.3811571797e+02 -2.8385308640e-04
2.4261790799e+02 -2.0745387027e-04
2.4720274829e+02 -2.4758449147e-04
2.5187180076e+02 -1.9695007347e-04
2.5662665594e+02 -7.8183505931e-05
2.6146893364e+02 -1.0724148382e-04
2.6640028341e+02 -1.8783983924e-04
2.7142238519e+02 -2.1672091713e-04
2.7653694978e+02 -1.5786165434e-04
2.8174571954e+02 3.5568885722e-05
2.8705046887e+02 3.0280973794e-04
2.9245300490e+02 6.8312092720e-04
2.9795516805e+02 1.0192003906e-03
3.0355883269e+02 1.1350549784e-03
3.0926590777e+02 1.1161864451e-03
3.1507833746e+02 1.2105213982e-03
3.2099810182e+02 1.3814486527e-03
3.2702721749e+02 1.5365890723e-03
3.3316773833e+02 1.7347373226e-03
3.3942175615e+02 1.9493255310e-03
3.4579140141e+02 2.1117802561e-03
3.5227884389e+02 2.1852208285e-03
3.5888629334e+02 2.2989902619e-03
3.6561600013e+02 2.4641855412e-03
3.7247025564e+02 2.6085428659e-03
3.7945139238e+02 2.6695565600e-03
3.8656178361e+02 2.6544084896e-03
3.9380384183e+02 2.6872592896e-03
4.0118001554e+02 2.7674736962e-03
4.0869278313e+02 2.7472921794e-03
4.1634464207e+02 2.7467582761e-03
4.2413809122e+02 2.7031638243e-03
4.3207560294e+02 2.5119388606e-03
4.4015958123e+02 2.3589037971e-03
4.4839230158e+02 2.2624712459e-03
4.5677582794e+02 2.0960426994e-03
4.6531190345e+02 1.9078976071e-03
4.7400181292e+02 1.7078642122e-03
4.8284621863e+02 1.4854600202e-03
4.9184497480e+02 1.2632917619e-03
5.0099693186e+02 1.0837823036e-03
5.1029974625e+02 9.4248794445e-04
5.1974971627e+02 7.7088892753e-04
5.2934166651e+02 6.1827714107e-04
5.3906890265e+02 5.0647727263e-04
5.4892325388e+02 4.0534133502e-04
5.5889521190e+02 3.0462706328e-04
5.6897416497e+02 2.2465514150e-04
5.7914871332e+02 1.6714203319e-04
5.8940704153e+02 1.2515843678e-04
5.9973731589e+02 9.3307775000e-05
6.1012807113e+02 7.2929087409e-05
6.2056855339e+02 5.5492631692e-05
6.3104899243e+02 3.9661599364e-05
6.4156078668e+02 2.8153726501e-05
6.5209659581e+02 1.9249716175e-05
6.6265034658e+02 1.2792047941e-05
6.7321716636e+02 8.8429267176e-06
6.8379326367e+02 5.8873603888e-06
6.9437577694e+02 4.3337848294e-06
7.0496261119e+02 3.4292515804e-06
7.1555227852e+02 2.3673273896e-06
7.2614375372e+02 1.6835933798e-06
7.3673635149e+02 1.5018250974e-06
7.4732962734e+02 1.1113481865e-06
7.5792330156e+02 6.9394042565e-07
7.6851720338e+02 5.3709467557e-07
7.7911123163e+02 4.2363281347e-07
7.8970532814e+02 3.3947034414e-07
8.0029946048e+02 2.7714123024e-07
8.1089361110e+02 2.2890726900e-07
8.2148777078e+02 1.9101098149e-07
8.3208193482e+02 1.6079413929e-07
8.4267610090e+02 1.3639110746e-07
8.5327026791e+02 1.1625702239e-07
8.6386443532e+02 9.9389309287e-08
8.7445860292e+02 8.5068132438e-08
8.8505277058e+02 7.2867104234e-08
8.9564693828e+02 6.2558340944e-08
9.0624110599e+02 5.3860956950e-08
9.1683527370e+02 4.6440501316e-08
9.2742944141e+02 4.0062385935e-08
9.3802360913e+02 3.4613863993e-08
9.4861777684e+02 2.9959798248e-08
9.5921194456e+02 2.6064770682e-08
9.6980611227e+02 2.2777737575e-08
9.8040027999e+02 1.9891817255e-08
9.9099444770e+02 1.7287704717e-08
1.0015886154e+03 1.4942740259e-08
1.0121827831e+03 1.2768917241e-08
1.0227769508e+03 1.0855189433e-08
1.0333711186e+03 9.1756357521e-09
1.0439652863e+03 7.7156824141e-09
1.0545594540e+03 6.5306066110e-09
1.0651536217e+03 5.5992566306e-09
1.0757477894e+03 4.8849343504e-09
1.0863419571e+03 4.3946194415e-09
1.0969361249e+03 4.0236711052e-09
1.1075302926e+03 3.7060932580e-09
1.1181244603e+03 3.3983927270e-09
1.1287186280e+03 3.0612912548e-09
1.1393127957e+03 2.7155052006e-09
1.1499069634e+03 2.3886946319e-09
1.1605011311e+03 2.1109225425e-09
1.1710952989e+03 1.8081213070e-09
1.1816894666e+03 1.5275613534e-09
1.1922836343e+03 1.2397682069e-09
1.2028778020e+03 9.4352368533e-10
1.2134719697e+03 6.4994177279e-10
1.2240661374e+03 3.3185321931e-10
1.2346603051e+03 4.5238003145e-11
1.2452544729e+03 -2.1531182216e-10
1.2558486406e+03 -5.3736224559e-10
1.2664428083e+03 -8.2921594765e-10
1.2770369760e+03 -1.1015378058e-09
1.2876311437e+03 -1.2932052541e-09
1.2982253114e+03 -1.3462775451e-09
1.3088194791e+03 -1.3556620985e-09
1.3194136469e+03 -1.2651279368e-09
1.3300078146e+03 -1.0951682525e-09
1.3406019823e+03 -9.0134004373e-10
1.3511961500e+03 -6.6684989361e-10
1.3617903177e+03 -4.3885931726e-10
1.3723844854e+03 -1.9904342775e-10
1.3829786531e+03 6.0604634108e-11
1.3935728209e+03 3.3657524239e-10
1.4041669886e+03 5.8765236131e-10
1.4147611563e+03 8.1103878844e-10
1.4253553240e+03 9.3286488248e-10
1.4359494917e+03 9.5578573085e-10
1.4465436594e+03 9.4723409326e-10
1.4571378272e+03 8.7618112856e-10
1.4677319949e+03 8.4408922969e-10
1.4783261626e+03 8.4071431255e-10
1.4889203303e+03 8.6293688830e-10
1.4995144980e+03 8.8569009331e-10
1.5101086657e+03 8.9260169873e-10
1.5207028334e+03 8.4253490457e-10
1.5312970012e+03 7.7569920413e-10
1.5418911689e+03 6.5452217032e-10
1.5524853366e+03 5.4630111762e-10
1.5630795043e+03 4.4275821178e-10
1.5736736720e+03 4.0322835965e-10
1.5842678397e+03 3.6586024793e-10
1.5948620074e+03 4.1288542624e-10
1.6054561752e+03 4.6319853521e-10
1.6160503429e+03 5.2351823389e-10
1.6266445106e+03 6.0850005566e-10
1.6372386783e+03 7.3480374847e-10
1.6478328460e+03 8.7876380648e-10
1.6584270137e+03 1.0050295866e-09
1.6690211814e+03 1.1113431045e-09
1.6796153492e+03 1.1876701286e-09
1.6902095169e+03 1.1992463123e-09
1.7008036846e+03 1.1933045616e-09
1.7113978523e+03 1.0777209921e-09
1.7219920200e+03 8.9223321816e-10
1.7325861877e+03 6.6405541219e-10
1.7431803555e+03 3.9246628160e-10
1.7537745232e+03 1.1854095647e-10
1.7643686909e+03 -1.3022170515e-10
1.7749628586e+03 -3.2980092525e-10
1.7855570263e+03 -5.1159232429e-10
1.7961511940e+03 -6.3424311005e-10
1.8067453617e+03 -7.4129656410e-10
1.8173395295e+03 -7.8166863594e-10
1.8279336972e+03 -7.6020830790e-10
1.8385278649e+03 -6.4769924640e-10
1.8491220326e+03 -4.4795518518e-10
1.8597162003e+03 -1.6731897499e-10
1.8703103680e+03 1.2555016876e-10
1.8809045357e+03 4.0657165648e-10
1.8914987035e+03 6.1270432097e-10
1.9020928712e+03 7.1756072097e-10
1.9126870389e+03 6.4121308481e-10
1.9232812066e+03 4.5710814376e-10
1.9338753743e+03 2.0514349674e-10
1.9444695420e+03 -9.2310979447e-11
1.9550637097e+03 -3.5449169323e-10
1.9656578775e+03 -6.0939647708e-10
1.9762520452e+03 -8.5483357874e-10
1.9868462129e+03 -1.1035577321e-09
1.9974403806e+03 -1.3336958214e-09
2.0080345483e+03 -1.4973704569e-09
2.0186287160e+03 -1.6210125351e-09
2.0292228837e+03 -1.6812495070e-09
2.0398170515e+03 -1.6750525587e-09
2.0504112192e+03 -1.6792603157e-09
2.0610053869e+03 -1.6425567441e-09
2.0715995546e+03 -1.5829257954e-09
2.0821937223e+03 -1.5417435413e-09
2.0927878900e+03 -1.4284535936e-09
2.1033820578e+03 -1.2814563298e-09
2.1139762255e+03 -1.1500870733e-09
2.1245703932e+03 -1.0170134630e-09
2.1351645609e+03 -9.4361880599e-10
2.1457587286e+03 -8.7607871217e-10
2.1563528963e+03 -8.6455524532e-10
2.1669470640e+03 -8.7263828520e-10
2.1775412318e+03 -7.9745417160e-10
2.1881353995e+03 -6.6959550560e-10
2.1987295672e+03 -4.7312781496e-10
2.2093237349e+03 -2.3206741130e-10
2.2199179026e+03 -3.1357916500e-12
2.2305120703e+03 2.1978341788e-10
2.2411062380e+03 3.9449615175e-10
2.2517004058e+03 4.7684093736e-10
2.2622945735e+03 5.0219417228e-10
2.2728887412e+03 4.7496070975e-10
2.2834829089e+03 4.7603645068e-10
2.2940770766e+03 4.9946154081e-10
2.3046712443e+03 5.2626208462e-10
2.3152654120e+03 5.8085758056e-10
2.3258595798e+03 6.6131014211e-10
2.3364537475e+03 7.7723587926e-10
2.3470479152e+03 9.2444242771e-10
2.3576420829e+03 1.1093928813e-09
2.3682362506e+03 1.3181113027e-09
2.3788304183e+03 1.4638581229e-09
2.3894245861e+03 1.5686315325e-09
2.4000187538e+03 1.4923600873e-09
2.4106129215e+03 1.3300046540e-09
2.4212070892e+03 1.0433805376e-09
2.4318012569e+03 7.0521603836e-10
2.4423954246e+03 4.3463651661e-10
2.4529895923e+03 2.8577668564e-10
2.4635837601e+03 2.2481842156e-10
2.4741779278e+03 2.4310333754e-10
2.4847720955e+03 3.4805050114e-10
2.4953662632e+03 3.6626849332e-10
2.5059604309e+03 3.4042017081e-10
2.5165545986e+03 2.3711682709e-10
2.5271487663e+03 4.0787792942e-11
2.5377429341e+03 -1.3982173511e-10
2.5483371018e+03 -3.7223900804e-10
2.5589312695e+03 -7.2797772092e-10
2.5695254372e+03 -1.0142830582e-09
2.5801196049e+03 -1.3544496295e-09
2.5907137726e+03 -1.5403443234e-09
2.6013079403e+03 -1.6799677204e-09
2.6119021081e+03 -1.5244738320e-09
2.6224962758e+03 -1.3954590003e-09
2.6330904435e+03 -9.9734209799e-10
2.6436846112e+03 -6.7665595566e-10
2.6542787789e+03 -1.4387548996e-10
2.6648729466e+03 2.9723359319e-10
2.6754671143e+03 7.9366193489e-10
2.6860612821e+03 1.1892265157e-09
2.6966554498e+03 1.3888675930e-09
2.7072496175e+03 2.8318937869e-09
2.7178437852e+03 7.5680868219e-10
2.7284379529e+03 1.3015987752e-09
