# Turbulent kinetic energy budget term: P (production)
# Definition: P = -\bar{\rho} \widetilde{u_i'' u_j''} (\partial \tilde{u}_i / \partial x_j)
# Columns: y_plus    P^+
3.8646263475e-01 1.1549977109e-04
1.1533752036e+00 2.0772903564e-03
1.9209634831e+00 8.9935660447e-03
2.6894093988e+00 2.3484937176e-02
3.4589138713e+00 4.6498348842e-02
4.2296938542e+00 7.6739091724e-02
5.0019793562e+00 1.1140531696e-01
5.7760106829e+00 1.4685158239e-01
6.5520360469e+00 1.7989652715e-01
7.3303096133e+00 2.0805515306e-01
8.1110899864e+00 2.3007110150e-01
8.8946390963e+00 2.4546174176e-01
9.6812214258e+00 2.5459553925e-01
1.0471103504e+01 2.5813480695e-01
1.1264553601e+01 2.5709267869e-01
1.2061841567e+01 2.5242155374e-01
1.2863238767e+01 2.4513037847e-01
1.3669018081e+01 2.3601607598e-01
1.4479453944e+01 2.2581914860e-01
1.5294822408e+01 2.1505809479e-01
1.6115401223e+01 2.0418967086e-01
1.6941469919e+01 1.9349135101e-01
1.7773309905e+01 1.8319031433e-01
1.8611204551e+01 1.7336828475e-01
1.9455439297e+01 1.6407261927e-01
2.0306301738e+01 1.5525957762e-01
2.1164081729e+01 1.4690332970e-01
2.2029071483e+01 1.3895538180e-01
2.2901565666e+01 1.3141611217e-01
2.3781861504e+01 1.2427646179e-01
2.4670258877e+01 1.1755526639e-01
2.5567060427e+01 1.1124682475e-01
2.6472571660e+01 1.0535728450e-01
2.7387101046e+01 9.9872826835e-02
2.8310960130e+01 9.4796250708e-02
2.9244463634e+01 9.0120193455e-02
3.0187929564e+01 8.5844784694e-02
3.1141679324e+01 8.1941575935e-02
3.2106037817e+01 7.8367339467e-02
3.3081333562e+01 7.5052669608e-02
3.4067898803e+01 7.1935450358e-02
3.5066069625e+01 6.8963745768e-02
3.6076186064e+01 6.6122140375e-02
3.7098592226e+01 6.3418489067e-02
3.8133636406e+01 6.0880310131e-02
3.9181671201e+01 5.8525648489e-02
4.0243053635e+01 5.6360861661e-02
4.1318145279e+01 5.4371004038e-02
4.2407312375e+01 5.2536142881e-02
4.3510925957e+01 5.0835201544e-02
4.4629361984e+01 4.9255726785e-02
4.5763001462e+01 4.7782313263e-02
4.6912230577e+01 4.6396266679e-02
4.8077440826e+01 4.5072842267e-02
4.9259029150e+01 4.3797096298e-02
5.0457398069e+01 4.2567940558e-02
5.1672955819e+01 4.1397370800e-02
5.2906116493e+01 4.0295009014e-02
5.4157300179e+01 3.9264036094e-02
5.5426933107e+01 3.8296363742e-02
5.6715447790e+01 3.7378248406e-02
5.8023283173e+01 3.6494244311e-02
5.9350884784e+01 3.5636473814e-02
6.0698704885e+01 3.4804348336e-02
6.2067202624e+01 3.4004115384e-02
6.3456844193e+01 3.3244482094e-02
6.4868102990e+01 3.2541009239e-02
6.6301459772e+01 3.1910536867e-02
6.7757402829e+01 3.1360591132e-02
6.9236428142e+01 3.0879562323e-02
7.0739039556e+01 3.0444817520e-02
7.2265748952e+01 3.0034639619e-02
7.3817076418e+01 2.9633225741e-02
7.5393550430e+01 2.9219767797e-02
7.6995708031e+01 2.8767142985e-02
7.8624095011e+01 2.8254832143e-02
8.0279266098e+01 2.7688696443e-02
8.1961785143e+01 2.7103778720e-02
8.3672225313e+01 2.6538347802e-02
8.5411169286e+01 2.6002810420e-02
8.7179209453e+01 2.5496525709e-02
8.8976948115e+01 2.5034683769e-02
9.0804997688e+01 2.4631983356e-02
9.2663980918e+01 2.4280959439e-02
9.4554531086e+01 2.3969343591e-02
9.6477292228e+01 2.3688995969e-02
9.8432919351e+01 2.3424957472e-02
1.0042207866e+02 2.3154379983e-02
1.0244544778e+02 2.2863041382e-02
1.0450371600e+02 2.2549092987e-02
1.0659758449e+02 2.2210300599e-02
1.0872776654e+02 2.1841945429e-02
1.1089498782e+02 2.1450517473e-02
1.1309998661e+02 2.1061624042e-02
1.1534351409e+02 2.0704690594e-02
1.1762633451e+02 2.0380357226e-02
1.1994922556e+02 2.0064949817e-02
1.2231297854e+02 1.9753978124e-02
1.2471839870e+02 1.9473338121e-02
1.2716630546e+02 1.9229051213e-02
1.2965753273e+02 1.8992324464e-02
1.3219292918e+02 1.8737189633e-02
1.3477335850e+02 1.8457636114e-02
1.3739969976e+02 1.8147789653e-02
1.4007284764e+02 1.7810573311e-02
1.4279371277e+02 1.7488115239e-02
1.4556322205e+02 1.7215909168e-02
1.4838231894e+02 1.6967205853e-02
1.5125196379e+02 1.6717125352e-02
1.5417313418e+02 1.6479208440e-02
1.5714682523e+02 1.6251366457e-02
1.6017404996e+02 1.6021223559e-02
1.6325583964e+02 1.5783285293e-02
1.6639324409e+02 1.5515245187e-02
1.6958733211e+02 1.5205214318e-02
1.7283919180e+02 1.4890826816e-02
1.7614993094e+02 1.4620986067e-02
1.7952067737e+02 1.4387527652e-02
1.8295257936e+02 1.4151424427e-02
1.8644680602e+02 1.3883560135e-02
1.9000454771e+02 1.3586624479e-02
1.9362701641e+02 1.3301013126e-02
1.9731544613e+02 1.3045693672e-02
2.0107109340e+02 1.2806112733e-02
2.0489523759e+02 1.2552167167e-02
2.0878918146e+02 1.2275252487e-02
2.1275425151e+02 1.1984696153e-02
2.1679179849e+02 1.1681134016e-02
2.2090319782e+02 1.1372893546e-02
2.2508985010e+02 1.1050169285e-02
2.2935318154e+02 1.0725203503e-02
2.3369464451e+02 1.0423261601e-02
2.3811571797e+02 1.0142933754e-02
2.4261790799e+02 9.8807173207e-03
2.4720274829e+02 9.6076396848e-03
2.5187180076e+02 9.2846004648e-03
2.5662665594e+02 8.9284877991e-03
2.6146893364e+02 8.5996048018e-03
2.6640028341e+02 8.2908306837e-03
2.7142238519e+02 7.9722504740e-03
2.7653694978e+02 7.6655857549e-03
2.8174571954e+02 7.3761793834e-03
2.8705046887e+02 7.0819908254e-03
2.9245300490e+02 6.7734383940e-03
2.9795516805e+02 6.4292800406e-03
3.0355883269e+02 6.0727327218e-03
3.0926590777e+02 5.7325042914e-03
3.1507833746e+02 5.4055052805e-03
3.2099810182e+02 5.0910902159e-03
3.2702721749e+02 4.7859747948e-03
3.3316773833e+02 4.4806841594e-03
3.3942175615e+02 4.1646906491e-03
3.4579140141e+02 3.8476958632e-03
3.5227884389e+02 3.5343014828e-03
3.5888629334e+02 3.2186602582e-03
3.6561600013e+02 2.9087388475e-03
3.7247025564e+02 2.6055300050e-03
3.7945139238e+02 2.3129304476e-03
3.8656178361e+02 2.0305178124e-03
3.9380384183e+02 1.7583624614e-03
4.0118001554e+02 1.4974778512e-03
4.0869278313e+02 1.2493133449e-03
4.1634464207e+02 1.0253474078e-03
4.2413809122e+02 8.2628774242e-04
4.3207560294e+02 6.4794387098e-04
4.4015958123e+02 4.9830589311e-04
4.4839230158e+02 3.7679516974e-04
4.5677582794e+02 2.7852076197e-04
4.6531190345e+02 2.0204247398e-04
4.7400181292e+02 1.4274465307e-04
4.8284621863e+02 9.7594839075e-05
4.9184497480e+02 6.4428545570e-05
5.0099693186e+02 4.0881833003e-05
5.1029974625e+02 2.4491576768e-05
5.1974971627e+02 1.3740570014e-05
5.2934166651e+02 7.4736818116e-06
5.3906890265e+02 4.0292283826e-06
5.4892325388e+02 2.0550729715e-06
5.5889521190e+02 8.9451472729e-07
5.6897416497e+02 3.2029139462e-07
5.7914871332e+02 9.9657407094e-08
5.8940704153e+02 1.1901039173e-08
5.9973731589e+02 -2.4479871207e-08
6.1012807113e+02 -3.2985238225e-08
6.2056855339e+02 -3.4434087860e-08
6.3104899243e+02 -3.0321061877e-08
6.4156078668e+02 -2.5032811961e-08
6.5209659581e+02 -2.1388305054e-08
6.6265034658e+02 -1.9441080433e-08
6.7321716636e+02 -1.7996161729e-08
6.8379326367e+02 -1.6250142519e-08
6.9437577694e+02 -1.4547194163e-08
7.0496261119e+02 -1.2928327426e-08
7.1555227852e+02 -1.2029761139e-08
7.2614375372e+02 -1.1383608668e-08
7.3673635149e+02 -1.0652407296e-08
7.4732962734e+02 -9.9355318360e-09
7.5792330156e+02 -9.2386729282e-09
7.6851720338e+02 -8.8160289127e-09
7.7911123163e+02 -8.4909292762e-09
7.8970532814e+02 -8.2465062777e-09
8.0029946048e+02 -7.9157620348e-09
8.1089361110e+02 -7.5334598857e-09
8.2148777078e+02 -7.0965975985e-09
8.3208193482e+02 -6.6799942011e-09
8.4267610090e+02 -6.2659601996e-09
8.5327026791e+02 -5.8745161527e-09
8.6386443532e+02 -5.5095065455e-09
8.7445860292e+02 -5.1392277104e-09
8.8505277058e+02 -4.7541728674e-09
8.9564693828e+02 -4.3621507202e-09
9.0624110599e+02 -3.9822322117e-09
9.1683527370e+02 -3.6751485508e-09
9.2742944141e+02 -3.4174461266e-09
9.3802360913e+02 -3.2203196383e-09
9.4861777684e+02 -3.0386981577e-09
9.5921194456e+02 -2.9014581550e-09
9.6980611227e+02 -2.7962869920e-09
9.8040027999e+02 -2.7630298213e-09
9.9099444770e+02 -2.7687259521e-09
1.0015886154e+03 -2.8278828371e-09
1.0121827831e+03 -2.8723683753e-09
1.0227769508e+03 -2.8998486440e-09
1.0333711186e+03 -2.8581097012e-09
1.0439652863e+03 -2.7742202366e-09
1.0545594540e+03 -2.6379351606e-09
1.0651536217e+03 -2.4827299874e-09
1.0757477894e+03 -2.3175179364e-09
1.0863419571e+03 -2.1754077284e-09
1.0969361249e+03 -2.0782823372e-09
1.1075302926e+03 -2.0403961623e-09
1.1181244603e+03 -2.0574200333e-09
1.1287186280e+03 -2.1025165567e-09
1.1393127957e+03 -2.1521565353e-09
1.1499069634e+03 -2.1774410558e-09
1.1605011311e+03 -2.1749554560e-09
1.1710952989e+03 -2.1395597365e-09
1.1816894666e+03 -2.0836101526e-09
1.1922836343e+03 -2.0090284597e-09
1.2028778020e+03 -1.9271311886e-09
1.2134719697e+03 -1.8400224184e-09
1.2240661374e+03 -1.7632500827e-09
1.2346603051e+03 -1.6990798434e-09
1.2452544729e+03 -1.6566039955e-09
1.2558486406e+03 -1.6261598659e-09
1.2664428083e+03 -1.6045071874e-09
1.2770369760e+03 -1.5848761319e-09
1.2876311437e+03 -1.5713846466e-09
1.2982253114e+03 -1.5709543697e-09
1.3088194791e+03 -1.5874224452e-09
1.3194136469e+03 -1.6205228819e-09
1.3300078146e+03 -1.6593062048e-09
1.3406019823e+03 -1.6955960436e-09
1.3511961500e+03 -1.7189170426e-09
1.3617903177e+03 -1.7310234390e-09
1.3723844854e+03 -1.7336603237e-09
1.3829786531e+03 -1.7358714308e-09
1.3935728209e+03 -1.7412511056e-09
1.4041669886e+03 -1.7542393188e-09
1.4147611563e+03 -1.7728164861e-09
1.4253553240e+03 -1.7961844629e-09
1.4359494917e+03 -1.8197651152e-09
1.4465436594e+03 -1.8423624993e-09
1.4571378272e+03 -1.8600620170e-09
1.4677319949e+03 -1.8741589580e-09
1.4783261626e+03 -1.8839372068e-09
1.4889203303e+03 -1.8915040458e-09
1.4995144980e+03 -1.8951354873e-09
1.5101086657e+03 -1.8945381989e-09
1.5207028334e+03 -1.8893050984e-09
1.5312970012e+03 -1.8800053098e-09
1.5418911689e+03 -1.8657452439e-09
1.5524853366e+03 -1.8429577028e-09
1.5630795043e+03 -1.8066601471e-09
1.5736736720e+03 -1.7535423234e-09
1.5842678397e+03 -1.6830785075e-09
1.5948620074e+03 -1.6001074738e-09
1.6054561752e+03 -1.5107109505e-09
1.6160503429e+03 -1.4249171307e-09
1.6266445106e+03 -1.3511613966e-09
1.6372386783e+03 -1.2982854390e-09
1.6478328460e+03 -1.2687786100e-09
1.6584270137e+03 -1.2590592959e-09
1.6690211814e+03 -1.2596523417e-09
1.6796153492e+03 -1.2577952488e-09
1.6902095169e+03 -1.2440308929e-09
1.7008036846e+03 -1.2105805220e-09
1.7113978523e+03 -1.1578833872e-09
1.7219920200e+03 -1.0884364291e-09
1.7325861877e+03 -1.0111949994e-09
1.7431803555e+03 -9.3359900622e-10
1.7537745232e+03 -8.6251797141e-10
1.7643686909e+03 -8.0062759120e-10
1.7749628586e+03 -7.4547817691e-10
1.7855570263e+03 -6.9666342116e-10
1.7961511940e+03 -6.4971688684e-10
1.8067453617e+03 -6.0953566883e-10
1.8173395295e+03 -5.7196263004e-10
1.8279336972e+03 -5.4412367444e-10
1.8385278649e+03 -5.1739372080e-10
1.8491220326e+03 -4.9854758385e-10
1.8597162003e+03 -4.7471972114e-10
1.8703103680e+03 -4.5484487262e-10
1.8809045357e+03 -4.2687834304e-10
1.8914987035e+03 -4.0528137722e-10
1.9020928712e+03 -3.8184686614e-10
1.9126870389e+03 -3.7373529398e-10
1.9232812066e+03 -3.7266652523e-10
1.9338753743e+03 -3.8876221092e-10
1.9444695420e+03 -4.0796672360e-10
1.9550637097e+03 -4.3104692042e-10
1.9656578775e+03 -4.4598532104e-10
1.9762520452e+03 -4.5385903955e-10
1.9868462129e+03 -4.5305280796e-10
1.9974403806e+03 -4.4671884467e-10
2.0080345483e+03 -4.4153863929e-10
2.0186287160e+03 -4.3915150659e-10
2.0292228837e+03 -4.5120179548e-10
2.0398170515e+03 -4.7482395778e-10
2.0504112192e+03 -5.2202896669e-10
2.0610053869e+03 -5.8144575150e-10
2.0715995546e+03 -6.6100607212e-10
2.0821937223e+03 -7.4250926620e-10
2.0927878900e+03 -8.3410457205e-10
2.1033820578e+03 -9.1953228404e-10
2.1139762255e+03 -1.0091919141e-09
2.1245703932e+03 -1.0877157324e-09
2.1351645609e+03 -1.1603481973e-09
2.1457587286e+03 -1.2125177229e-09
2.1563528963e+03 -1.2472766648e-09
2.1669470640e+03 -1.2593860902e-09
2.1775412318e+03 -1.2519245338e-09
2.1881353995e+03 -1.2265509904e-09
2.1987295672e+03 -1.1834208807e-09
2.2093237349e+03 -1.1310861958e-09
2.2199179026e+03 -1.0706201052e-09
2.2305120703e+03 -1.0166753488e-09
2.2411062380e+03 -9.6920086880e-10
2.2517004058e+03 -9.4324591601e-10
2.2622945735e+03 -9.3428720469e-10
2.2728887412e+03 -9.5209370812e-10
2.2834829089e+03 -9.8606745237e-10
2.2940770766e+03 -1.0397315704e-09
2.3046712443e+03 -1.1028893541e-09
2.3152654120e+03 -1.1774577386e-09
2.3258595798e+03 -1.2586149726e-09
2.3364537475e+03 -1.3437194706e-09
2.3470479152e+03 -1.4295281882e-09
2.3576420829e+03 -1.5052779571e-09
2.3682362506e+03 -1.5706320486e-09
2.3788304183e+03 -1.6099320327e-09
2.3894245861e+03 -1.6298575507e-09
2.4000187538e+03 -1.6138848150e-09
2.4106129215e+03 -1.5794975636e-09
2.4212070892e+03 -1.5129304398e-09
2.4318012569e+03 -1.4430598828e-09
2.4423954246e+03 -1.3582385719e-09
2.4529895923e+03 -1.2906209591e-09
2.4635837601e+03 -1.2231393098e-09
2.4741779278e+03 -1.1805378503e-09
2.4847720955e+03 -1.1406005512e-09
2.4953662632e+03 -1.1214209965e-09
2.5059604309e+03 -1.1037862965e-09
2.5165545986e+03 -1.1006482724e-09
2.5271487663e+03 -1.0992983361e-09
2.5377429341e+03 -1.1056625490e-09
2.5483371018e+03 -1.1133719659e-09
2.5589312695e+03 -1.1199513983e-09
2.5695254372e+03 -1.1248642661e-09
2.5801196049e+03 -1.1196232725e-09
2.5907137726e+03 -1.1125770452e-09
2.6013079403e+03 -1.0964500321e-09
2.6119021081e+03 -1.0917115008e-09
2.6224962758e+03 -1.0929109775e-09
2.6330904435e+03 -1.1233648649e-09
2.6436846112e+03 -1.1706133069e-09
2.6542787789e+03 -1.2544794989e-09
2.6648729466e+03 -1.3566687208e-09
2.6754671143e+03 -1.4938267935e-09
2.6860612821e+03 -1.6411950816e-09
2.6966554498e+03 -1.8007512802e-09
2.7072496175e+03 -1.9752510828e-09
2.7178437852e+03 -2.0256245891e-09
2.7284379529e+03 -2.1458852077e-09
