# Reynolds stress Morkovin's scaling 
# Columns: y_plus    rho u''u''/tau_wall
3.9832992606e-01 2.2479827506e-02
1.1887924427e+00 1.9592715490e-01
1.9799514194e+00 5.3057759468e-01
2.7719943680e+00 1.0088578567e+00
3.5651283791e+00 1.6006553843e+00
4.3595770683e+00 2.2643267480e+00
5.1555775073e+00 2.9540828383e+00
5.9533773809e+00 3.6277841249e+00
6.7532325235e+00 4.2526695587e+00
7.5554049053e+00 4.8070651955e+00
8.3601610713e+00 5.2800772173e+00
9.1677709952e+00 5.6691673064e+00
9.9785072812e+00 5.9777640451e+00
1.0792644643e+01 6.2125893278e+00
1.1610459588e+01 6.3820614633e+00
1.2432230253e+01 6.4949593992e+00
1.3258236337e+01 6.5598897551e+00
1.4088759099e+01 6.5847672265e+00
1.4924081400e+01 6.5766998813e+00
1.5764487770e+01 6.5418348239e+00
1.6610264487e+01 6.4854428949e+00
1.7461699667e+01 6.4119569500e+00
1.8319083357e+01 6.3251277170e+00
1.9182707631e+01 6.2281278378e+00
2.0052866693e+01 6.1236730855e+00
2.0929856971e+01 6.0140597352e+00
2.1813977219e+01 5.9011933191e+00
2.2705528623e+01 5.7866079826e+00
2.3604814899e+01 5.6715451586e+00
2.4512142398e+01 5.5570186888e+00
2.5427820210e+01 5.4438550946e+00
2.6352160271e+01 5.3326653807e+00
2.7285477466e+01 5.2238448022e+00
2.8228089740e+01 5.1175845261e+00
2.9180318202e+01 5.0139621514e+00
3.0142487241e+01 4.9129942604e+00
3.1114924627e+01 4.8147061220e+00
3.2097961633e+01 4.7191272754e+00
3.3091933139e+01 4.6263337607e+00
3.4097177753e+01 4.5364241107e+00
3.5114037921e+01 4.4495509498e+00
3.6142860047e+01 4.3658733240e+00
3.7183994610e+01 4.2855536929e+00
3.8237796283e+01 4.2086527795e+00
3.9304624055e+01 4.1351138248e+00
4.0384841351e+01 4.0647279821e+00
4.1478816159e+01 3.9972513792e+00
4.2586921152e+01 3.9324628293e+00
4.3709533817e+01 3.8702548362e+00
4.4847036585e+01 3.8105528990e+00
4.5999816957e+01 3.7532844799e+00
4.7168267640e+01 3.6982905255e+00
4.8352786679e+01 3.6453828736e+00
4.9553777591e+01 3.5943454355e+00
5.0771649508e+01 3.5450208360e+00
5.2006817308e+01 3.4972797215e+00
5.3259701767e+01 3.4510689805e+00
5.4530729690e+01 3.4063625084e+00
5.5820334067e+01 3.3631859478e+00
5.7128954215e+01 3.3215418384e+00
5.8457035929e+01 3.2814331753e+00
5.9805031633e+01 3.2428219498e+00
6.1173400536e+01 3.2057236744e+00
6.2562608788e+01 3.1701859237e+00
6.3973129635e+01 3.1362339527e+00
6.5405443587e+01 3.1037069954e+00
6.6860038576e+01 3.0723247663e+00
6.8337410125e+01 3.0417885801e+00
6.9838061516e+01 3.0119070937e+00
7.1362503960e+01 2.9825745580e+00
7.2911256775e+01 2.9538231991e+00
7.4484847559e+01 2.9256858546e+00
7.6083812373e+01 2.8981143522e+00
7.7708695921e+01 2.8710209531e+00
7.9360051734e+01 2.8444968837e+00
8.1038442365e+01 2.8186858924e+00
8.2744439576e+01 2.7935733613e+00
8.4478624530e+01 2.7689561808e+00
8.6241587997e+01 2.7446739405e+00
8.8033930547e+01 2.7206858538e+00
8.9856262762e+01 2.6970693765e+00
9.1709205436e+01 2.6738442103e+00
9.3593389795e+01 2.6508839727e+00
9.5509457704e+01 2.6280429460e+00
9.7458061892e+01 2.6054059176e+00
9.9439866172e+01 2.5831037793e+00
1.0145554566e+02 2.5611849508e+00
1.0350578703e+02 2.5396523369e+00
1.0559128871e+02 2.5185186209e+00
1.0771276115e+02 2.4976863026e+00
1.0987092704e+02 2.4770149902e+00
1.1206652160e+02 2.4564073279e+00
1.1430029277e+02 2.4358171190e+00
1.1657300151e+02 2.4153364123e+00
1.1888542205e+02 2.3951679175e+00
1.2123834212e+02 2.3752586659e+00
1.2363256328e+02 2.3552442945e+00
1.2606890115e+02 2.3348064244e+00
1.2854818569e+02 2.3138608153e+00
1.3107126148e+02 2.2922919444e+00
1.3363898805e+02 2.2700345947e+00
1.3625224012e+02 2.2473095010e+00
1.3891190791e+02 2.2244618426e+00
1.4161889747e+02 2.2016228521e+00
1.4437413097e+02 2.1787688919e+00
1.4717854699e+02 2.1560518457e+00
1.5003310091e+02 2.1335588520e+00
1.5293876514e+02 2.1108993157e+00
1.5589652954e+02 2.0877970790e+00
1.5890740169e+02 2.0643382374e+00
1.6197240728e+02 2.0406468702e+00
1.6509259044e+02 2.0165573936e+00
1.6826901409e+02 1.9919757134e+00
1.7150276031e+02 1.9670246130e+00
1.7479493070e+02 1.9418271027e+00
1.7814664679e+02 1.9164461826e+00
1.8155905037e+02 1.8913216834e+00
1.8503330390e+02 1.8663907301e+00
1.8857059093e+02 1.8409513223e+00
1.9217211647e+02 1.8142442217e+00
1.9583910742e+02 1.7862722346e+00
1.9957281298e+02 1.7577647326e+00
2.0337450507e+02 1.7291118657e+00
2.0724547877e+02 1.7002606935e+00
2.1118705278e+02 1.6714860507e+00
2.1520056983e+02 1.6425117861e+00
2.1928739716e+02 1.6124531351e+00
2.2344892701e+02 1.5807616384e+00
2.2768657703e+02 1.5481241339e+00
2.3200179082e+02 1.5154794274e+00
2.3639603841e+02 1.4831966888e+00
2.4087081674e+02 1.4508258026e+00
2.4542765019e+02 1.4177814817e+00
2.5006809109e+02 1.3845110244e+00
2.5479372026e+02 1.3520469123e+00
2.5960614754e+02 1.3202296464e+00
2.6450701231e+02 1.2883111021e+00
2.6949798412e+02 1.2558140554e+00
2.7458076319e+02 1.2221956763e+00
2.7975708102e+02 1.1874815448e+00
2.8502870098e+02 1.1521207735e+00
2.9039741890e+02 1.1165785486e+00
2.9586506368e+02 1.0813468317e+00
3.0143349794e+02 1.0452270968e+00
3.0710461862e+02 1.0077170156e+00
3.1288035765e+02 9.7002248581e-01
3.1876268259e+02 9.3247218112e-01
3.2475359732e+02 8.9424327040e-01
3.3085514269e+02 8.5492364231e-01
3.3706939727e+02 8.1454827136e-01
3.4339847799e+02 7.7385227381e-01
3.4984454091e+02 7.3237070326e-01
3.5640978188e+02 6.9028614119e-01
3.6309643733e+02 6.4777219629e-01
3.6990678487e+02 6.0482929530e-01
3.7684314396e+02 5.6193913455e-01
3.8390787633e+02 5.1936196279e-01
3.9110338615e+02 4.7712449329e-01
3.9843211953e+02 4.3522253449e-01
4.0589656306e+02 3.9322058741e-01
4.1349924044e+02 3.5216423133e-01
4.2124270614e+02 3.1268842727e-01
4.2912953435e+02 2.7476237779e-01
4.3716230063e+02 2.3911824376e-01
4.4534355328e+02 2.0628583827e-01
4.5367577013e+02 1.7620945597e-01
4.6216129653e+02 1.4895317190e-01
4.7080225980e+02 1.2460789835e-01
4.7960045663e+02 1.0357941994e-01
4.8855721127e+02 8.5475677387e-02
4.9767320634e+02 6.9634522358e-02
5.0694829158e+02 5.6179578093e-02
5.1638128212e+02 4.5169177591e-02
5.2596976245e+02 3.6462512813e-02
5.3570991718e+02 2.9635216235e-02
5.4559641198e+02 2.4204769577e-02
5.5562234697e+02 1.9789322162e-02
5.6577930043e+02 1.6358081520e-02
5.7605747209e+02 1.3661818154e-02
5.8644592435e+02 1.1448562347e-02
5.9693290738e+02 9.6806601289e-03
6.0750624294e+02 8.3126856974e-03
6.1815373393e+02 7.2403518315e-03
6.2886356302e+02 6.3259299249e-03
6.3962464611e+02 5.5249030866e-03
6.5042691296e+02 4.8414460040e-03
6.6126149787e+02 4.2643050082e-03
6.7212083508e+02 3.7733413203e-03
6.8299866488e+02 3.3603243917e-03
6.9388996500e+02 3.0270156024e-03
7.0479082754e+02 2.7464386744e-03
7.1569830307e+02 2.4981673595e-03
7.2661023225e+02 2.2831137026e-03
7.3752508151e+02 2.0886883962e-03
7.4844179417e+02 1.9108444941e-03
7.5935966386e+02 1.7592807490e-03
7.7027823245e+02 1.6281274777e-03
7.8119721165e+02 1.5111540404e-03
7.9211642543e+02 1.4060615969e-03
8.0303576952e+02 1.3111920236e-03
8.1395518398e+02 1.2256210780e-03
8.2487463536e+02 1.1482047912e-03
8.3579410559e+02 1.0780892271e-03
8.4671358515e+02 1.0143638938e-03
8.5763306920e+02 9.5640214115e-04
8.6855255537e+02 9.0349324422e-04
8.7947204248e+02 8.5515038715e-04
8.9039153002e+02 8.1080379014e-04
9.0131101774e+02 7.7007697889e-04
9.1223050554e+02 7.3252761802e-04
9.2314999336e+02 6.9788239907e-04
9.3406948120e+02 6.6580380374e-04
9.4498896904e+02 6.3609688505e-04
9.5590845688e+02 6.0850052884e-04
9.6682794473e+02 5.8287668681e-04
9.7774743257e+02 5.5901868467e-04
9.8866692042e+02 5.3683084147e-04
9.9958640826e+02 5.1614573886e-04
1.0105058961e+03 4.9689621131e-04
1.0214253840e+03 4.7894011943e-04
1.0323448718e+03 4.6222991619e-04
1.0432643596e+03 4.4664266793e-04
1.0541838475e+03 4.3213722622e-04
1.0651033353e+03 4.1859158302e-04
1.0760228232e+03 4.0596182774e-04
1.0869423110e+03 3.9413340826e-04
1.0978617989e+03 3.8307645625e-04
1.1087812867e+03 3.7269505295e-04
1.1197007746e+03 3.6297419815e-04
1.1306202624e+03 3.5383187356e-04
1.1415397502e+03 3.4526186000e-04
1.1524592381e+03 3.3719028272e-04
1.1633787259e+03 3.2961218877e-04
1.1742982138e+03 3.2245536506e-04
1.1852177016e+03 3.1571691070e-04
1.1961371895e+03 3.0933351929e-04
1.2070566773e+03 3.0331254611e-04
1.2179761652e+03 2.9760080171e-04
1.2288956530e+03 2.9221143491e-04
1.2398151408e+03 2.8709396149e-04
1.2507346287e+03 2.8225870925e-04
1.2616541165e+03 2.7765211737e-04
1.2725736044e+03 2.7327916144e-04
1.2834930922e+03 2.6909071267e-04
1.2944125801e+03 2.6509641675e-04
1.3053320679e+03 2.6126239027e-04
1.3162515558e+03 2.5760447331e-04
1.3271710436e+03 2.5409716260e-04
1.3380905314e+03 2.5075184814e-04
1.3490100193e+03 2.4754726125e-04
1.3599295071e+03 2.4449926903e-04
1.3708489950e+03 2.4160259818e-04
1.3817684828e+03 2.3888134107e-04
1.3926879707e+03 2.3632941855e-04
1.4036074585e+03 2.3395457480e-04
1.4145269464e+03 2.3173089436e-04
1.4254464342e+03 2.2965076190e-04
1.4363659220e+03 2.2768423327e-04
1.4472854099e+03 2.2582839990e-04
1.4582048977e+03 2.2406389877e-04
1.4691243856e+03 2.2239783488e-04
1.4800438734e+03 2.2081877064e-04
1.4909633613e+03 2.1933853591e-04
1.5018828491e+03 2.1794826464e-04
1.5128023370e+03 2.1666118854e-04
1.5237218248e+03 2.1546719179e-04
1.5346413126e+03 2.1437642820e-04
1.5455608005e+03 2.1337467944e-04
1.5564802883e+03 2.1246900773e-04
1.5673997762e+03 2.1164366619e-04
1.5783192640e+03 2.1090440405e-04
1.5892387519e+03 2.1023429872e-04
1.6001582397e+03 2.0963660624e-04
1.6110777276e+03 2.0909310073e-04
1.6219972154e+03 2.0860357651e-04
1.6329167032e+03 2.0814767917e-04
1.6438361911e+03 2.0771965087e-04
1.6547556789e+03 2.0729838660e-04
1.6656751668e+03 2.0687554923e-04
1.6765946546e+03 2.0643591126e-04
1.6875141425e+03 2.0597302899e-04
1.6984336303e+03 2.0548154082e-04
1.7093531182e+03 2.0495615732e-04
1.7202726060e+03 2.0440141447e-04
1.7311920938e+03 2.0381227639e-04
1.7421115817e+03 2.0320519487e-04
1.7530310695e+03 2.0257685293e-04
1.7639505574e+03 2.0195499849e-04
1.7748700452e+03 2.0133431843e-04
1.7857895331e+03 2.0074524027e-04
1.7967090209e+03 2.0017278331e-04
1.8076285088e+03 1.9964146574e-04
1.8185479966e+03 1.9912430183e-04
1.8294674844e+03 1.9863852414e-04
1.8403869723e+03 1.9815032362e-04
1.8513064601e+03 1.9767587249e-04
1.8622259480e+03 1.9718658107e-04
1.8731454358e+03 1.9670592074e-04
1.8840649237e+03 1.9621767971e-04
1.8949844115e+03 1.9574895664e-04
1.9059038994e+03 1.9529096010e-04
1.9168233872e+03 1.9486539114e-04
1.9277428750e+03 1.9446976327e-04
1.9386623629e+03 1.9411920369e-04
1.9495818507e+03 1.9381899098e-04
1.9605013386e+03 1.9357173309e-04
1.9714208264e+03 1.9338526551e-04
1.9823403143e+03 1.9324314641e-04
1.9932598021e+03 1.9315784907e-04
2.0041792900e+03 1.9309581427e-04
2.0150987778e+03 1.9308228081e-04
2.0260182656e+03 1.9306906451e-04
2.0369377535e+03 1.9309980227e-04
2.0478572413e+03 1.9310806911e-04
2.0587767292e+03 1.9315350375e-04
2.0696962170e+03 1.9314358519e-04
2.0806157049e+03 1.9315495145e-04
2.0915351927e+03 1.9307365313e-04
2.1024546806e+03 1.9300420133e-04
2.1133741684e+03 1.9282059531e-04
2.1242936562e+03 1.9265831408e-04
2.1352131441e+03 1.9238061678e-04
2.1461326319e+03 1.9214520289e-04
2.1570521198e+03 1.9180506165e-04
2.1679716076e+03 1.9153023225e-04
2.1788910955e+03 1.9117238523e-04
2.1898105833e+03 1.9090370225e-04
2.2007300712e+03 1.9058669639e-04
2.2116495590e+03 1.9038141013e-04
2.2225690468e+03 1.9017658169e-04
2.2334885347e+03 1.9010586258e-04
2.2444080225e+03 1.9010340722e-04
2.2553275104e+03 1.9026129447e-04
2.2662469982e+03 1.9057803142e-04
2.2771664861e+03 1.9108494830e-04
2.2880859739e+03 1.9185923618e-04
2.2990054618e+03 1.9284636725e-04
2.3099249496e+03 1.9420724071e-04
2.3208444374e+03 1.9576916303e-04
2.3317639253e+03 1.9777439357e-04
2.3426834131e+03 1.9990717993e-04
2.3536029010e+03 2.0249828920e-04
2.3645223888e+03 2.0508594848e-04
2.3754418767e+03 2.0810399696e-04
2.3863613645e+03 2.1095113877e-04
2.3972808524e+03 2.1417022316e-04
2.4082003402e+03 2.1702771894e-04
2.4191198280e+03 2.2017443315e-04
2.4300393159e+03 2.2276107404e-04
2.4409588037e+03 2.2554786073e-04
2.4518782916e+03 2.2760085035e-04
2.4627977794e+03 2.2979366904e-04
2.4737172673e+03 2.3114480252e-04
2.4846367551e+03 2.3263568997e-04
2.4955562430e+03 2.3326610790e-04
2.5064757308e+03 2.3410161896e-04
2.5173952187e+03 2.3414409425e-04
2.5283147065e+03 2.3450499707e-04
2.5392341943e+03 2.3420883262e-04
2.5501536822e+03 2.3436179826e-04
2.5610731700e+03 2.3404031229e-04
2.5719926579e+03 2.3428861236e-04
2.5829121457e+03 2.3428875101e-04
2.5938316336e+03 2.3496404611e-04
2.6047511214e+03 2.3567863412e-04
2.6156706093e+03 2.3715925080e-04
2.6265900971e+03 2.3904087294e-04
2.6375095849e+03 2.4176017190e-04
2.6484290728e+03 2.4532450616e-04
2.6593485606e+03 2.4978059444e-04
2.6702680485e+03 2.5560048505e-04
2.6811875363e+03 2.6233559102e-04
2.6921070242e+03 2.7094810079e-04
2.7030265120e+03 2.8039548555e-04
2.7139459999e+03 2.9202243166e-04
2.7248654877e+03 3.0415202870e-04
2.7357849755e+03 3.1822127540e-04
2.7467044634e+03 3.3203249519e-04
2.7576239512e+03 3.4666410359e-04
2.7685434391e+03 3.5981707885e-04
2.7794629269e+03 3.7176053492e-04
2.7903824148e+03 3.8093594200e-04
2.8013019026e+03 3.8664359463e-04
2.8122213905e+03 3.8973485833e-04
