# Reynolds stress Morkovin's scaling 
# Columns: y_plus    rho u''w''/tau_wall
3.9832992606e-01 5.8579246094e-03
1.1887924427e+00 5.7252830802e-02
1.9799514194e+00 1.6736522073e-01
2.7719943680e+00 3.3626175788e-01
3.5651283791e+00 5.5479999316e-01
4.3595770683e+00 8.0657220345e-01
5.1555775073e+00 1.0718411562e+00
5.9533773809e+00 1.3318887530e+00
6.7532325235e+00 1.5718056080e+00
7.5554049053e+00 1.7816958155e+00
8.3601610713e+00 1.9564385794e+00
9.1677709952e+00 2.0948128314e+00
9.9785072812e+00 2.1982974675e+00
1.0792644643e+01 2.2699851180e+00
1.1610459588e+01 2.3137031569e+00
1.2432230253e+01 2.3334915568e+00
1.3258236337e+01 2.3332909349e+00
1.4088759099e+01 2.3167875858e+00
1.4924081400e+01 2.2872822831e+00
1.5764487770e+01 2.2476300234e+00
1.6610264487e+01 2.2002171948e+00
1.7461699667e+01 2.1470006932e+00
1.8319083357e+01 2.0895656656e+00
1.9182707631e+01 2.0292053281e+00
2.0052866693e+01 1.9669954757e+00
2.0929856971e+01 1.9038415874e+00
2.1813977219e+01 1.8405057881e+00
2.2705528623e+01 1.7776059877e+00
2.3604814899e+01 1.7156241374e+00
2.4512142398e+01 1.6548870584e+00
2.5427820210e+01 1.5955827284e+00
2.6352160271e+01 1.5377808217e+00
2.7285477466e+01 1.4815125775e+00
2.8228089740e+01 1.4268108952e+00
2.9180318202e+01 1.3737560107e+00
3.0142487241e+01 1.3224452757e+00
3.1114924627e+01 1.2729869285e+00
3.2097961633e+01 1.2254542208e+00
3.3091933139e+01 1.1799035298e+00
3.4097177753e+01 1.1363517048e+00
3.5114037921e+01 1.0947948829e+00
3.6142860047e+01 1.0551767496e+00
3.7183994610e+01 1.0174192931e+00
3.8237796283e+01 9.8141403410e-01
3.9304624055e+01 9.4706751552e-01
4.0384841351e+01 9.1430032080e-01
4.1478816159e+01 8.8308602565e-01
4.2586921152e+01 8.5341712438e-01
4.3709533817e+01 8.2529751811e-01
4.4847036585e+01 7.9868669420e-01
4.5999816957e+01 7.7350717150e-01
4.7168267640e+01 7.4962703193e-01
4.8352786679e+01 7.2691131362e-01
4.9553777591e+01 7.0524913371e-01
5.0771649508e+01 6.8459723254e-01
5.2006817308e+01 6.6492487836e-01
5.3259701767e+01 6.4619480389e-01
5.4530729690e+01 6.2835781121e-01
5.5820334067e+01 6.1140410154e-01
5.7128954215e+01 5.9534542978e-01
5.8457035929e+01 5.8019705615e-01
5.9805031633e+01 5.6591907627e-01
6.1173400536e+01 5.5243555916e-01
6.2562608788e+01 5.3966146091e-01
6.3973129635e+01 5.2752263600e-01
6.5405443587e+01 5.1593654707e-01
6.6860038576e+01 5.0486243824e-01
6.8337410125e+01 4.9430507996e-01
6.9838061516e+01 4.8428867381e-01
7.1362503960e+01 4.7479356830e-01
7.2911256775e+01 4.6578477910e-01
7.4484847559e+01 4.5723043816e-01
7.6083812373e+01 4.4911439362e-01
7.7708695921e+01 4.4143572095e-01
7.9360051734e+01 4.3420033958e-01
8.1038442365e+01 4.2732530628e-01
8.2744439576e+01 4.2063393861e-01
8.4478624530e+01 4.1396200600e-01
8.6241587997e+01 4.0724853565e-01
8.8033930547e+01 4.0049836046e-01
8.9856262762e+01 3.9371058688e-01
9.1709205436e+01 3.8683454370e-01
9.3593389795e+01 3.7989034826e-01
9.5509457704e+01 3.7302004285e-01
9.7458061892e+01 3.6636346497e-01
9.9439866172e+01 3.5994226538e-01
1.0145554566e+02 3.5371232709e-01
1.0350578703e+02 3.4759465787e-01
1.0559128871e+02 3.4151045039e-01
1.0771276115e+02 3.3545846047e-01
1.0987092704e+02 3.2951683071e-01
1.1206652160e+02 3.2370721799e-01
1.1430029277e+02 3.1798282999e-01
1.1657300151e+02 3.1232374648e-01
1.1888542205e+02 3.0673838764e-01
1.2123834212e+02 3.0123624313e-01
1.2363256328e+02 2.9578118144e-01
1.2606890115e+02 2.9029113746e-01
1.2854818569e+02 2.8472968674e-01
1.3107126148e+02 2.7903148753e-01
1.3363898805e+02 2.7320234585e-01
1.3625224012e+02 2.6743405889e-01
1.3891190791e+02 2.6193762520e-01
1.4161889747e+02 2.5684699081e-01
1.4437413097e+02 2.5213428834e-01
1.4717854699e+02 2.4756362119e-01
1.5003310091e+02 2.4295746884e-01
1.5293876514e+02 2.3828600568e-01
1.5589652954e+02 2.3365162138e-01
1.5890740169e+02 2.2920159176e-01
1.6197240728e+02 2.2477456576e-01
1.6509259044e+02 2.2004029878e-01
1.6826901409e+02 2.1498213490e-01
1.7150276031e+02 2.0987590304e-01
1.7479493070e+02 2.0492879999e-01
1.7814664679e+02 1.9996294718e-01
1.8155905037e+02 1.9472997213e-01
1.8503330390e+02 1.8941223740e-01
1.8857059093e+02 1.8439739113e-01
1.9217211647e+02 1.7979115163e-01
1.9583910742e+02 1.7553696632e-01
1.9957281298e+02 1.7151577711e-01
2.0337450507e+02 1.6753037879e-01
2.0724547877e+02 1.6338586781e-01
2.1118705278e+02 1.5918847057e-01
2.1520056983e+02 1.5488157715e-01
2.1928739716e+02 1.5007465543e-01
2.2344892701e+02 1.4482059240e-01
2.2768657703e+02 1.3934072853e-01
2.3200179082e+02 1.3360457080e-01
2.3639603841e+02 1.2746245016e-01
2.4087081674e+02 1.2112280081e-01
2.4542765019e+02 1.1524423294e-01
2.5006809109e+02 1.0994804256e-01
2.5479372026e+02 1.0498142570e-01
2.5960614754e+02 1.0025050293e-01
2.6450701231e+02 9.5639241589e-02
2.6949798412e+02 9.1036117485e-02
2.7458076319e+02 8.6677355872e-02
2.7975708102e+02 8.2417558362e-02
2.8502870098e+02 7.8273336159e-02
2.9039741890e+02 7.4293223350e-02
2.9586506368e+02 7.0696429939e-02
3.0143349794e+02 6.7476034935e-02
3.0710461862e+02 6.4579286455e-02
3.1288035765e+02 6.1843032454e-02
3.1876268259e+02 5.9270153164e-02
3.2475359732e+02 5.6862978017e-02
3.3085514269e+02 5.4021377838e-02
3.3706939727e+02 5.0381675078e-02
3.4339847799e+02 4.6636889504e-02
3.4984454091e+02 4.3849219524e-02
3.5640978188e+02 4.1894091795e-02
3.6309643733e+02 3.9797787900e-02
3.6990678487e+02 3.7488455379e-02
3.7684314396e+02 3.4894597106e-02
3.8390787633e+02 3.2333881371e-02
3.9110338615e+02 2.9949028676e-02
3.9843211953e+02 2.7172560359e-02
4.0589656306e+02 2.4296599896e-02
4.1349924044e+02 2.1556658150e-02
4.2124270614e+02 1.9118462841e-02
4.2912953435e+02 1.6902007791e-02
4.3716230063e+02 1.4365015575e-02
4.4534355328e+02 1.1717028972e-02
4.5367577013e+02 9.2973085616e-03
4.6216129653e+02 7.3024452902e-03
4.7080225980e+02 5.7969439004e-03
4.7960045663e+02 4.7829942901e-03
4.8855721127e+02 3.9918517593e-03
4.9767320634e+02 3.0756544835e-03
5.0694829158e+02 2.0188435908e-03
5.1638128212e+02 1.2052314807e-03
5.2596976245e+02 7.7556335209e-04
5.3570991718e+02 6.0799273504e-04
5.4559641198e+02 4.5947052839e-04
5.5562234697e+02 2.9192919772e-04
5.6577930043e+02 1.8865064472e-04
5.7605747209e+02 1.2170852684e-04
5.8644592435e+02 8.9100177604e-05
5.9693290738e+02 1.0423140088e-04
6.0750624294e+02 9.1524780712e-05
6.1815373393e+02 4.3657312177e-05
6.2886356302e+02 1.2497946560e-05
6.3962464611e+02 1.3344926239e-05
6.5042691296e+02 2.5317626456e-05
6.6126149787e+02 1.7690052027e-05
6.7212083508e+02 4.6516377179e-07
6.8299866488e+02 -1.4467330715e-05
6.9388996500e+02 -2.3059973862e-05
7.0479082754e+02 -2.5325011421e-05
7.1569830307e+02 -2.6651147694e-05
7.2661023225e+02 -3.0356682950e-05
7.3752508151e+02 -3.4285791449e-05
7.4844179417e+02 -3.4895699336e-05
7.5935966386e+02 -3.5924219393e-05
7.7027823245e+02 -3.7721528667e-05
7.8119721165e+02 -3.9472110521e-05
7.9211642543e+02 -4.1241507084e-05
8.0303576952e+02 -4.2938913329e-05
8.1395518398e+02 -4.4507354804e-05
8.2487463536e+02 -4.5945990027e-05
8.3579410559e+02 -4.7274538943e-05
8.4671358515e+02 -4.8503309468e-05
8.5763306920e+02 -4.9647922805e-05
8.6855255537e+02 -5.0708415329e-05
8.7947204248e+02 -5.1691416560e-05
8.9039153002e+02 -5.2589574683e-05
9.0131101774e+02 -5.3407598029e-05
9.1223050554e+02 -5.4141615353e-05
9.2314999336e+02 -5.4805461098e-05
9.3406948120e+02 -5.5409146328e-05
9.4498896904e+02 -5.5975045904e-05
9.5590845688e+02 -5.6518928413e-05
9.6682794473e+02 -5.7057837398e-05
9.7774743257e+02 -5.7601214437e-05
9.8866692042e+02 -5.8153848881e-05
9.9958640826e+02 -5.8717608480e-05
1.0105058961e+03 -5.9288911274e-05
1.0214253840e+03 -5.9868658104e-05
1.0323448718e+03 -6.0450086782e-05
1.0432643596e+03 -6.1035902581e-05
1.0541838475e+03 -6.1616082477e-05
1.0651033353e+03 -6.2192165477e-05
1.0760228232e+03 -6.2749481049e-05
1.0869423110e+03 -6.3288154565e-05
1.0978617989e+03 -6.3795282729e-05
1.1087812867e+03 -6.4276906986e-05
1.1197007746e+03 -6.4728584842e-05
1.1306202624e+03 -6.5162480648e-05
1.1415397502e+03 -6.5577390647e-05
1.1524592381e+03 -6.5983996316e-05
1.1633787259e+03 -6.6378384314e-05
1.1742982138e+03 -6.6768705667e-05
1.1852177016e+03 -6.7150810247e-05
1.1961371895e+03 -6.7534251986e-05
1.2070566773e+03 -6.7915993528e-05
1.2179761652e+03 -6.8306231603e-05
1.2288956530e+03 -6.8699610862e-05
1.2398151408e+03 -6.9104277610e-05
1.2507346287e+03 -6.9509719416e-05
1.2616541165e+03 -6.9921046400e-05
1.2725736044e+03 -7.0322093053e-05
1.2834930922e+03 -7.0715474364e-05
1.2944125801e+03 -7.1080423600e-05
1.3053320679e+03 -7.1419756163e-05
1.3162515558e+03 -7.1712658390e-05
1.3271710436e+03 -7.1968388889e-05
1.3380905314e+03 -7.2171873990e-05
1.3490100193e+03 -7.2343162146e-05
1.3599295071e+03 -7.2474591093e-05
1.3708489950e+03 -7.2595100397e-05
1.3817684828e+03 -7.2698776445e-05
1.3926879707e+03 -7.2815143770e-05
1.4036074585e+03 -7.2932301718e-05
1.4145269464e+03 -7.3075475139e-05
1.4254464342e+03 -7.3225431940e-05
1.4363659220e+03 -7.3403691751e-05
1.4472854099e+03 -7.3585967409e-05
1.4582048977e+03 -7.3791499009e-05
1.4691243856e+03 -7.3993452958e-05
1.4800438734e+03 -7.4209690365e-05
1.4909633613e+03 -7.4413743546e-05
1.5018828491e+03 -7.4624986852e-05
1.5128023370e+03 -7.4821780498e-05
1.5237218248e+03 -7.5027779782e-05
1.5346413126e+03 -7.5225981583e-05
1.5455608005e+03 -7.5440434488e-05
1.5564802883e+03 -7.5651950578e-05
1.5673997762e+03 -7.5879256506e-05
1.5783192640e+03 -7.6097508841e-05
1.5892387519e+03 -7.6322317969e-05
1.6001582397e+03 -7.6527824213e-05
1.6110777276e+03 -7.6733128492e-05
1.6219972154e+03 -7.6913705037e-05
1.6329167032e+03 -7.7091762971e-05
1.6438361911e+03 -7.7240476238e-05
1.6547556789e+03 -7.7384870359e-05
1.6656751668e+03 -7.7496947411e-05
1.6765946546e+03 -7.7608130689e-05
1.6875141425e+03 -7.7689478426e-05
1.6984336303e+03 -7.7777846450e-05
1.7093531182e+03 -7.7839472425e-05
1.7202726060e+03 -7.7913867971e-05
1.7311920938e+03 -7.7960639566e-05
1.7421115817e+03 -7.8022850887e-05
1.7530310695e+03 -7.8055701243e-05
1.7639505574e+03 -7.8107437186e-05
1.7748700452e+03 -7.8128354205e-05
1.7857895331e+03 -7.8168750980e-05
1.7967090209e+03 -7.8171261412e-05
1.8076285088e+03 -7.8188015171e-05
1.8185479966e+03 -7.8158126253e-05
1.8294674844e+03 -7.8140998786e-05
1.8403869723e+03 -7.8077372948e-05
1.8513064601e+03 -7.8034924104e-05
1.8622259480e+03 -7.7954334335e-05
1.8731454358e+03 -7.7906271045e-05
1.8840649237e+03 -7.7826148785e-05
1.8949844115e+03 -7.7783688774e-05
1.9059038994e+03 -7.7709166538e-05
1.9168233872e+03 -7.7674830964e-05
1.9277428750e+03 -7.7609728761e-05
1.9386623629e+03 -7.7590937092e-05
1.9495818507e+03 -7.7544430279e-05
1.9605013386e+03 -7.7548786066e-05
1.9714208264e+03 -7.7522499684e-05
1.9823403143e+03 -7.7543833003e-05
1.9932598021e+03 -7.7524072225e-05
2.0041792900e+03 -7.7544044758e-05
2.0150987778e+03 -7.7511040305e-05
2.0260182656e+03 -7.7511358759e-05
2.0369377535e+03 -7.7450496527e-05
2.0478572413e+03 -7.7421203479e-05
2.0587767292e+03 -7.7327387036e-05
2.0696962170e+03 -7.7266638186e-05
2.0806157049e+03 -7.7140406859e-05
2.0915351927e+03 -7.7049594738e-05
2.1024546806e+03 -7.6894243190e-05
2.1133741684e+03 -7.6778528660e-05
2.1242936562e+03 -7.6603732414e-05
2.1352131441e+03 -7.6477622939e-05
2.1461326319e+03 -7.6304368367e-05
2.1570521198e+03 -7.6192502835e-05
2.1679716076e+03 -7.6047482389e-05
2.1788910955e+03 -7.5973696079e-05
2.1898105833e+03 -7.5877301522e-05
2.2007300712e+03 -7.5856274111e-05
2.2116495590e+03 -7.5820114258e-05
2.2225690468e+03 -7.5859635785e-05
2.2334885347e+03 -7.5889412464e-05
2.2444080225e+03 -7.5991044418e-05
2.2553275104e+03 -7.6084813198e-05
2.2662469982e+03 -7.6243733807e-05
2.2771664861e+03 -7.6396615522e-05
2.2880859739e+03 -7.6612457089e-05
2.2990054618e+03 -7.6830624622e-05
2.3099249496e+03 -7.7119705875e-05
2.3208444374e+03 -7.7426868929e-05
2.3317639253e+03 -7.7821557295e-05
2.3426834131e+03 -7.8254800600e-05
2.3536029010e+03 -7.8799552143e-05
2.3645223888e+03 -7.9408522315e-05
2.3754418767e+03 -8.0159962432e-05
2.3863613645e+03 -8.1003753882e-05
2.3972808524e+03 -8.2020451023e-05
2.4082003402e+03 -8.3148636118e-05
2.4191198280e+03 -8.4465471046e-05
2.4300393159e+03 -8.5891800514e-05
2.4409588037e+03 -8.7501499767e-05
2.4518782916e+03 -8.9201678881e-05
2.4627977794e+03 -9.1070206346e-05
2.4737172673e+03 -9.3009260074e-05
2.4846367551e+03 -9.5103195849e-05
2.4955562430e+03 -9.7254438101e-05
2.5064757308e+03 -9.9549561443e-05
2.5173952187e+03 -1.0189860069e-04
2.5283147065e+03 -1.0438634081e-04
2.5392341943e+03 -1.0694215657e-04
2.5501536822e+03 -1.0964283196e-04
2.5610731700e+03 -1.1244541464e-04
2.5719926579e+03 -1.1540639245e-04
2.5829121457e+03 -1.1851391282e-04
2.5938316336e+03 -1.2179286319e-04
2.6047511214e+03 -1.2526786750e-04
2.6156706093e+03 -1.2892777837e-04
2.6265900971e+03 -1.3283727283e-04
2.6375095849e+03 -1.3694324058e-04
2.6484290728e+03 -1.4134122789e-04
2.6593485606e+03 -1.4592736364e-04
2.6702680485e+03 -1.5081063133e-04
2.6811875363e+03 -1.5583730137e-04
2.6921070242e+03 -1.6110985077e-04
2.7030265120e+03 -1.6643881895e-04
2.7139459999e+03 -1.7189048758e-04
2.7248654877e+03 -1.7726476814e-04
2.7357849755e+03 -1.8254736088e-04
2.7467044634e+03 -1.8757073623e-04
2.7576239512e+03 -1.9218857632e-04
2.7685434391e+03 -1.9633993210e-04
2.7794629269e+03 -1.9970071437e-04
2.7903824148e+03 -2.0242391241e-04
2.8013019026e+03 -2.0399717358e-04
2.8122213905e+03 -2.0503563247e-04
