# Reynolds stress Morkovin's scaling 
# Columns: y_plus    -rho u''w''/tau_wall
3.9832992606e-01 1.0927587414e-04
1.1887924427e+00 1.8898944658e-03
1.9799514194e+00 8.1197507551e-03
2.7719943680e+00 2.1342551385e-02
3.5651283791e+00 4.3128045646e-02
4.3595770683e+00 7.3553655258e-02
5.1555775073e+00 1.1165277477e-01
5.9533773809e+00 1.5552263838e-01
6.7532325235e+00 2.0316745683e-01
7.5554049053e+00 2.5246862763e-01
8.3601610713e+00 3.0180859284e-01
9.1677709952e+00 3.4972562072e-01
9.9785072812e+00 3.9535684816e-01
1.0792644643e+01 4.3796905591e-01
1.1610459588e+01 4.7733332423e-01
1.2432230253e+01 5.1322982931e-01
1.3258236337e+01 5.4580543907e-01
1.4088759099e+01 5.7510868181e-01
1.4924081400e+01 6.0144647293e-01
1.5764487770e+01 6.2496425742e-01
1.6610264487e+01 6.4600216423e-01
1.7461699667e+01 6.6472333007e-01
1.8319083357e+01 6.8145087211e-01
1.9182707631e+01 6.9632709082e-01
2.0052866693e+01 7.0962344763e-01
2.0929856971e+01 7.2143956252e-01
2.1813977219e+01 7.3199282278e-01
2.2705528623e+01 7.4135228957e-01
2.3604814899e+01 7.4969526528e-01
2.4512142398e+01 7.5706638336e-01
2.5427820210e+01 7.6360935590e-01
2.6352160271e+01 7.6935925812e-01
2.7285477466e+01 7.7444959310e-01
2.8228089740e+01 7.7892514636e-01
2.9180318202e+01 7.8291713916e-01
3.0142487241e+01 7.8646652596e-01
3.1114924627e+01 7.8966990010e-01
3.2097961633e+01 7.9252734923e-01
3.3091933139e+01 7.9508852833e-01
3.4097177753e+01 7.9733494882e-01
3.5114037921e+01 7.9930791318e-01
3.6142860047e+01 8.0098882363e-01
3.7183994610e+01 8.0240410852e-01
3.8237796283e+01 8.0352948186e-01
3.9304624055e+01 8.0439618007e-01
4.0384841351e+01 8.0500137353e-01
4.1478816159e+01 8.0538564965e-01
4.2586921152e+01 8.0554273167e-01
4.3709533817e+01 8.0549462569e-01
4.4847036585e+01 8.0522786663e-01
4.5999816957e+01 8.0477163812e-01
4.7168267640e+01 8.0413362034e-01
4.8352786679e+01 8.0335950160e-01
4.9553777591e+01 8.0246952316e-01
5.0771649508e+01 8.0150594523e-01
5.2006817308e+01 8.0047116131e-01
5.3259701767e+01 7.9937868128e-01
5.4530729690e+01 7.9820900841e-01
5.5820334067e+01 7.9696039928e-01
5.7128954215e+01 7.9560810492e-01
5.8457035929e+01 7.9414611714e-01
5.9805031633e+01 7.9254895164e-01
6.1173400536e+01 7.9082227604e-01
6.2562608788e+01 7.8897435424e-01
6.3973129635e+01 7.8704545790e-01
6.5405443587e+01 7.8505175674e-01
6.6860038576e+01 7.8299862857e-01
6.8337410125e+01 7.8086480932e-01
6.9838061516e+01 7.7865769901e-01
7.1362503960e+01 7.7637940825e-01
7.2911256775e+01 7.7403978997e-01
7.4484847559e+01 7.7163056389e-01
7.6083812373e+01 7.6915504798e-01
7.7708695921e+01 7.6660397215e-01
7.9360051734e+01 7.6400145840e-01
8.1038442365e+01 7.6137985085e-01
8.2744439576e+01 7.5877134917e-01
8.4478624530e+01 7.5616034169e-01
8.6241587997e+01 7.5350805390e-01
8.8033930547e+01 7.5075101537e-01
8.9856262762e+01 7.4781504883e-01
9.1709205436e+01 7.4462716913e-01
9.3593389795e+01 7.4118229102e-01
9.5509457704e+01 7.3753772141e-01
9.7458061892e+01 7.3377076656e-01
9.9439866172e+01 7.2988844453e-01
1.0145554566e+02 7.2588492746e-01
1.0350578703e+02 7.2177620522e-01
1.0559128871e+02 7.1762642286e-01
1.0771276115e+02 7.1353631739e-01
1.0987092704e+02 7.0961199716e-01
1.1206652160e+02 7.0587891119e-01
1.1430029277e+02 7.0232010988e-01
1.1657300151e+02 6.9893152818e-01
1.1888542205e+02 6.9567567826e-01
1.2123834212e+02 6.9242147936e-01
1.2363256328e+02 6.8901787105e-01
1.2606890115e+02 6.8536503165e-01
1.2854818569e+02 6.8144487436e-01
1.3107126148e+02 6.7723675442e-01
1.3363898805e+02 6.7269419433e-01
1.3625224012e+02 6.6775419290e-01
1.3891190791e+02 6.6241435487e-01
1.4161889747e+02 6.5675970262e-01
1.4437413097e+02 6.5089702582e-01
1.4717854699e+02 6.4491658616e-01
1.5003310091e+02 6.3890236913e-01
1.5293876514e+02 6.3286814833e-01
1.5589652954e+02 6.2676706818e-01
1.5890740169e+02 6.2049804626e-01
1.6197240728e+02 6.1401263828e-01
1.6509259044e+02 6.0740824104e-01
1.6826901409e+02 6.0080317864e-01
1.7150276031e+02 5.9414757046e-01
1.7479493070e+02 5.8731264931e-01
1.7814664679e+02 5.8023062031e-01
1.8155905037e+02 5.7286918917e-01
1.8503330390e+02 5.6523100366e-01
1.8857059093e+02 5.5751043963e-01
1.9217211647e+02 5.4990414596e-01
1.9583910742e+02 5.4235216995e-01
1.9957281298e+02 5.3469789239e-01
2.0337450507e+02 5.2680819719e-01
2.0724547877e+02 5.1869468101e-01
2.1118705278e+02 5.1044208601e-01
2.1520056983e+02 5.0207992374e-01
2.1928739716e+02 4.9355477397e-01
2.2344892701e+02 4.8491710681e-01
2.2768657703e+02 4.7634695124e-01
2.3200179082e+02 4.6787037986e-01
2.3639603841e+02 4.5929131069e-01
2.4087081674e+02 4.5033262100e-01
2.4542765019e+02 4.4081439900e-01
2.5006809109e+02 4.3069477962e-01
2.5479372026e+02 4.2002486082e-01
2.5960614754e+02 4.0893457341e-01
2.6450701231e+02 3.9772307362e-01
2.6949798412e+02 3.8658312133e-01
2.7458076319e+02 3.7538938260e-01
2.7975708102e+02 3.6399658470e-01
2.8502870098e+02 3.5229760870e-01
2.9039741890e+02 3.4045257616e-01
2.9586506368e+02 3.2863825390e-01
3.0143349794e+02 3.1661798865e-01
3.0710461862e+02 3.0414344361e-01
3.1288035765e+02 2.9156843076e-01
3.1876268259e+02 2.7910900049e-01
3.2475359732e+02 2.6644025846e-01
3.3085514269e+02 2.5353955087e-01
3.3706939727e+02 2.4062827284e-01
3.4339847799e+02 2.2796967497e-01
3.4984454091e+02 2.1533407425e-01
3.5640978188e+02 2.0266150532e-01
3.6309643733e+02 1.8989797809e-01
3.6990678487e+02 1.7688981693e-01
3.7684314396e+02 1.6399203489e-01
3.8390787633e+02 1.5134334849e-01
3.9110338615e+02 1.3889630069e-01
3.9843211953e+02 1.2652915676e-01
4.0589656306e+02 1.1421688173e-01
4.1349924044e+02 1.0221024472e-01
4.2124270614e+02 9.0605134041e-02
4.2912953435e+02 7.9461997695e-02
4.3716230063e+02 6.9140706098e-02
4.4534355328e+02 5.9693790634e-02
4.5367577013e+02 5.1037216164e-02
4.6216129653e+02 4.3141826511e-02
4.7080225980e+02 3.5915703311e-02
4.7960045663e+02 2.9442465618e-02
4.8855721127e+02 2.3901191182e-02
4.9767320634e+02 1.9255098993e-02
5.0694829158e+02 1.5357258362e-02
5.1638128212e+02 1.2125969882e-02
5.2596976245e+02 9.4453709219e-03
5.3570991718e+02 7.2657539876e-03
5.4559641198e+02 5.5177885673e-03
5.5562234697e+02 4.0939540620e-03
5.6577930043e+02 2.9866015200e-03
5.7605747209e+02 2.1475210997e-03
5.8644592435e+02 1.4903339798e-03
5.9693290738e+02 1.0046672637e-03
6.0750624294e+02 6.8369804610e-04
6.1815373393e+02 4.6828946947e-04
6.2886356302e+02 3.2247497464e-04
6.3962464611e+02 2.3308465574e-04
6.5042691296e+02 1.8524887421e-04
6.6126149787e+02 1.5055713600e-04
6.7212083508e+02 1.1662374114e-04
6.8299866488e+02 9.0640080088e-05
6.9388996500e+02 7.4032817942e-05
7.0479082754e+02 6.3600262828e-05
7.1569830307e+02 5.6161830164e-05
7.2661023225e+02 5.2606626581e-05
7.3752508151e+02 5.0166576133e-05
7.4844179417e+02 4.5034557546e-05
7.5935966386e+02 4.0353605824e-05
7.7027823245e+02 3.8041786589e-05
7.8119721165e+02 3.6827179115e-05
7.9211642543e+02 3.5816225862e-05
8.0303576952e+02 3.4876292713e-05
8.1395518398e+02 3.4065175263e-05
8.2487463536e+02 3.3335056400e-05
8.3579410559e+02 3.2658617352e-05
8.4671358515e+02 3.1968710365e-05
8.5763306920e+02 3.1247032737e-05
8.6855255537e+02 3.0443280216e-05
8.7947204248e+02 2.9564086692e-05
8.9039153002e+02 2.8601531522e-05
9.0131101774e+02 2.7593301191e-05
9.1223050554e+02 2.6553416376e-05
9.2314999336e+02 2.5526636837e-05
9.3406948120e+02 2.4523523529e-05
9.4498896904e+02 2.3580869307e-05
9.5590845688e+02 2.2691496580e-05
9.6682794473e+02 2.1874930377e-05
9.7774743257e+02 2.1110030136e-05
9.8866692042e+02 2.0410741825e-05
9.9958640826e+02 1.9757262100e-05
1.0105058961e+03 1.9163500341e-05
1.0214253840e+03 1.8611077203e-05
1.0323448718e+03 1.8112261290e-05
1.0432643596e+03 1.7650076562e-05
1.0541838475e+03 1.7231954088e-05
1.0651033353e+03 1.6839730751e-05
1.0760228232e+03 1.6476441127e-05
1.0869423110e+03 1.6129635472e-05
1.0978617989e+03 1.5804275466e-05
1.1087812867e+03 1.5491593080e-05
1.1197007746e+03 1.5189486836e-05
1.1306202624e+03 1.4887544533e-05
1.1415397502e+03 1.4582816891e-05
1.1524592381e+03 1.4277079391e-05
1.1633787259e+03 1.3973173682e-05
1.1742982138e+03 1.3678073333e-05
1.1852177016e+03 1.3387906506e-05
1.1961371895e+03 1.3105743622e-05
1.2070566773e+03 1.2823406388e-05
1.2179761652e+03 1.2544558622e-05
1.2288956530e+03 1.2264130850e-05
1.2398151408e+03 1.1986561341e-05
1.2507346287e+03 1.1707891523e-05
1.2616541165e+03 1.1429155835e-05
1.2725736044e+03 1.1149075214e-05
1.2834930922e+03 1.0867972693e-05
1.2944125801e+03 1.0587781429e-05
1.3053320679e+03 1.0304192750e-05
1.3162515558e+03 1.0020120467e-05
1.3271710436e+03 9.7288911727e-06
1.3380905314e+03 9.4391565076e-06
1.3490100193e+03 9.1463859002e-06
1.3599295071e+03 8.8642165863e-06
1.3708489950e+03 8.5871752974e-06
1.3817684828e+03 8.3295081016e-06
1.3926879707e+03 8.0846666007e-06
1.4036074585e+03 7.8674965921e-06
1.4145269464e+03 7.6694210223e-06
1.4254464342e+03 7.5007339993e-06
1.4363659220e+03 7.3459859794e-06
1.4472854099e+03 7.2087487585e-06
1.4582048977e+03 7.0708356927e-06
1.4691243856e+03 6.9382945421e-06
1.4800438734e+03 6.7995573971e-06
1.4909633613e+03 6.6661063943e-06
1.5018828491e+03 6.5277806958e-06
1.5128023370e+03 6.3923038045e-06
1.5237218248e+03 6.2460924311e-06
1.5346413126e+03 6.0951033020e-06
1.5455608005e+03 5.9289253709e-06
1.5564802883e+03 5.7570522121e-06
1.5673997762e+03 5.5737887376e-06
1.5783192640e+03 5.3897852649e-06
1.5892387519e+03 5.1985286156e-06
1.6001582397e+03 5.0072883035e-06
1.6110777276e+03 4.8071551788e-06
1.6219972154e+03 4.6061946060e-06
1.6329167032e+03 4.3969649416e-06
1.6438361911e+03 4.1906606837e-06
1.6547556789e+03 3.9779341852e-06
1.6656751668e+03 3.7692908028e-06
1.6765946546e+03 3.5492057694e-06
1.6875141425e+03 3.3278350356e-06
1.6984336303e+03 3.0858030142e-06
1.7093531182e+03 2.8377555431e-06
1.7202726060e+03 2.5649000854e-06
1.7311920938e+03 2.2919972290e-06
1.7421115817e+03 2.0039494233e-06
1.7530310695e+03 1.7341067627e-06
1.7639505574e+03 1.4619650390e-06
1.7748700452e+03 1.2180567018e-06
1.7857895331e+03 9.6825112875e-07
1.7967090209e+03 7.3982416966e-07
1.8076285088e+03 4.9117398343e-07
1.8185479966e+03 2.5638620457e-07
1.8294674844e+03 -4.8109449297e-09
1.8403869723e+03 -2.4842956956e-07
1.8513064601e+03 -5.1671413381e-07
1.8622259480e+03 -7.6166589895e-07
1.8731454358e+03 -1.0286881700e-06
1.8840649237e+03 -1.2654893954e-06
1.8949844115e+03 -1.5189455088e-06
1.9059038994e+03 -1.7387430868e-06
1.9168233872e+03 -1.9768198545e-06
1.9277428750e+03 -2.1904502072e-06
1.9386623629e+03 -2.4316257951e-06
1.9495818507e+03 -2.6618605132e-06
1.9605013386e+03 -2.9235529773e-06
1.9714208264e+03 -3.1785699542e-06
1.9823403143e+03 -3.4544488458e-06
1.9932598021e+03 -3.7173984755e-06
2.0041792900e+03 -3.9876908427e-06
2.0150987778e+03 -4.2472980961e-06
2.0260182656e+03 -4.5134482401e-06
2.0369377535e+03 -4.7809730111e-06
2.0478572413e+03 -5.0565184938e-06
2.0587767292e+03 -5.3441864129e-06
2.0696962170e+03 -5.6389701529e-06
2.0806157049e+03 -5.9543716726e-06
2.0915351927e+03 -6.2695562223e-06
2.1024546806e+03 -6.6033856233e-06
2.1133741684e+03 -6.9180130396e-06
2.1242936562e+03 -7.2434933653e-06
2.1352131441e+03 -7.5356439948e-06
2.1461326319e+03 -7.8424611532e-06
2.1570521198e+03 -8.1138801830e-06
2.1679716076e+03 -8.4048422837e-06
2.1788910955e+03 -8.6523385705e-06
2.1898105833e+03 -8.9139322802e-06
2.2007300712e+03 -9.1223957675e-06
2.2116495590e+03 -9.3429119873e-06
2.2225690468e+03 -9.5108310865e-06
2.2334885347e+03 -9.6954563646e-06
2.2444080225e+03 -9.8358770204e-06
2.2553275104e+03 -1.0000155579e-05
2.2662469982e+03 -1.0133192482e-05
2.2771664861e+03 -1.0293646089e-05
2.2880859739e+03 -1.0433939919e-05
2.2990054618e+03 -1.0595192211e-05
2.3099249496e+03 -1.0744974416e-05
2.3208444374e+03 -1.0902056564e-05
2.3317639253e+03 -1.1057178689e-05
2.3426834131e+03 -1.1199867184e-05
2.3536029010e+03 -1.1349755431e-05
2.3645223888e+03 -1.1464670928e-05
2.3754418767e+03 -1.1599861585e-05
2.3863613645e+03 -1.1683482078e-05
2.3972808524e+03 -1.1809150305e-05
2.4082003402e+03 -1.1878912182e-05
2.4191198280e+03 -1.2021184113e-05
2.4300393159e+03 -1.2112139859e-05
2.4409588037e+03 -1.2299240507e-05
2.4518782916e+03 -1.2428630659e-05
2.4627977794e+03 -1.2651776368e-05
2.4737172673e+03 -1.2796757226e-05
2.4846367551e+03 -1.3021559570e-05
2.4955562430e+03 -1.3157989660e-05
2.5064757308e+03 -1.3366335192e-05
2.5173952187e+03 -1.3491197286e-05
2.5283147065e+03 -1.3680954424e-05
2.5392341943e+03 -1.3803883079e-05
2.5501536822e+03 -1.3984245330e-05
2.5610731700e+03 -1.4124559423e-05
2.5719926579e+03 -1.4305571432e-05
2.5829121457e+03 -1.4473733300e-05
2.5938316336e+03 -1.4649318566e-05
2.6047511214e+03 -1.4844532118e-05
2.6156706093e+03 -1.5000837261e-05
2.6265900971e+03 -1.5220248919e-05
2.6375095849e+03 -1.5335986800e-05
2.6484290728e+03 -1.5569471673e-05
2.6593485606e+03 -1.5615698545e-05
2.6702680485e+03 -1.5855610554e-05
2.6811875363e+03 -1.5816352831e-05
2.6921070242e+03 -1.6076157151e-05
2.7030265120e+03 -1.5963573655e-05
2.7139459999e+03 -1.6274744510e-05
2.7248654877e+03 -1.6126745331e-05
2.7357849755e+03 -1.6521239972e-05
2.7467044634e+03 -1.6398945228e-05
2.7576239512e+03 -1.6885208814e-05
2.7685434391e+03 -1.6856379619e-05
2.7794629269e+03 -1.7388101726e-05
2.7903824148e+03 -1.7502666550e-05
2.8013019026e+03 -1.7993531455e-05
2.8122213905e+03 -1.8245963621e-05
