# Reynolds stress Morkovin's scaling 
# Columns: y_plus    rho w''w''/tau_wall
3.9832992606e-01 1.2093268331e-02
1.1887924427e+00 9.4642749911e-02
1.9799514194e+00 2.3465882109e-01
2.7719943680e+00 4.1430142603e-01
3.5651283791e+00 6.1940900060e-01
4.3595770683e+00 8.3701821487e-01
5.1555775073e+00 1.0557820100e+00
5.9533773809e+00 1.2661909503e+00
6.7532325235e+00 1.4615589995e+00
7.5554049053e+00 1.6376287300e+00
8.3601610713e+00 1.7926379464e+00
9.1677709952e+00 1.9263879862e+00
9.9785072812e+00 2.0399962271e+00
1.0792644643e+01 2.1350428457e+00
1.1610459588e+01 2.2134700129e+00
1.2432230253e+01 2.2771416978e+00
1.3258236337e+01 2.3279857067e+00
1.4088759099e+01 2.3677677461e+00
1.4924081400e+01 2.3981918484e+00
1.5764487770e+01 2.4207111868e+00
1.6610264487e+01 2.4366155379e+00
1.7461699667e+01 2.4469483771e+00
1.8319083357e+01 2.4526156058e+00
1.9182707631e+01 2.4543647092e+00
2.0052866693e+01 2.4528704158e+00
2.0929856971e+01 2.4487152458e+00
2.1813977219e+01 2.4424250348e+00
2.2705528623e+01 2.4344448034e+00
2.3604814899e+01 2.4251436989e+00
2.4512142398e+01 2.4147793169e+00
2.5427820210e+01 2.4034942175e+00
2.6352160271e+01 2.3913416884e+00
2.7285477466e+01 2.3783532141e+00
2.8228089740e+01 2.3645985125e+00
2.9180318202e+01 2.3502064048e+00
3.0142487241e+01 2.3353456800e+00
3.1114924627e+01 2.3201824402e+00
3.2097961633e+01 2.3048519449e+00
3.3091933139e+01 2.2894601499e+00
3.4097177753e+01 2.2741052580e+00
3.5114037921e+01 2.2588845916e+00
3.6142860047e+01 2.2438790747e+00
3.7183994610e+01 2.2291367084e+00
3.8237796283e+01 2.2146648820e+00
3.9304624055e+01 2.2004353201e+00
4.0384841351e+01 2.1863889173e+00
4.1478816159e+01 2.1724690028e+00
4.2586921152e+01 2.1586390821e+00
4.3709533817e+01 2.1448815096e+00
4.4847036585e+01 2.1311832387e+00
4.5999816957e+01 2.1175472773e+00
4.7168267640e+01 2.1039543259e+00
4.8352786679e+01 2.0903533338e+00
4.9553777591e+01 2.0766868888e+00
5.0771649508e+01 2.0629340919e+00
5.2006817308e+01 2.0490926875e+00
5.3259701767e+01 2.0351941338e+00
5.4530729690e+01 2.0212926874e+00
5.5820334067e+01 2.0074693737e+00
5.7128954215e+01 1.9938050891e+00
5.8457035929e+01 1.9803920347e+00
5.9805031633e+01 1.9672957037e+00
6.1173400536e+01 1.9545199521e+00
6.2562608788e+01 1.9419813706e+00
6.3973129635e+01 1.9295956170e+00
6.5405443587e+01 1.9173237157e+00
6.6860038576e+01 1.9051913652e+00
6.8337410125e+01 1.8932221266e+00
6.9838061516e+01 1.8814105173e+00
7.1362503960e+01 1.8696741288e+00
7.2911256775e+01 1.8578620101e+00
7.4484847559e+01 1.8458029377e+00
7.6083812373e+01 1.8334257803e+00
7.7708695921e+01 1.8207335938e+00
7.9360051734e+01 1.8077666462e+00
8.1038442365e+01 1.7945922659e+00
8.2744439576e+01 1.7813161563e+00
8.4478624530e+01 1.7680526138e+00
8.6241587997e+01 1.7549174309e+00
8.8033930547e+01 1.7419661585e+00
8.9856262762e+01 1.7292110036e+00
9.1709205436e+01 1.7166150990e+00
9.3593389795e+01 1.7040790767e+00
9.5509457704e+01 1.6914944055e+00
9.7458061892e+01 1.6789126073e+00
9.9439866172e+01 1.6665404713e+00
1.0145554566e+02 1.6545929275e+00
1.0350578703e+02 1.6430142383e+00
1.0559128871e+02 1.6315272342e+00
1.0771276115e+02 1.6199007529e+00
1.0987092704e+02 1.6080124673e+00
1.1206652160e+02 1.5958038452e+00
1.1430029277e+02 1.5832575829e+00
1.1657300151e+02 1.5703023821e+00
1.1888542205e+02 1.5569155282e+00
1.2123834212e+02 1.5431843602e+00
1.2363256328e+02 1.5292555013e+00
1.2606890115e+02 1.5151267739e+00
1.2854818569e+02 1.5008123229e+00
1.3107126148e+02 1.4864014881e+00
1.3363898805e+02 1.4718933468e+00
1.3625224012e+02 1.4571319280e+00
1.3891190791e+02 1.4422257083e+00
1.4161889747e+02 1.4274460521e+00
1.4437413097e+02 1.4129070922e+00
1.4717854699e+02 1.3986442487e+00
1.5003310091e+02 1.3848262832e+00
1.5293876514e+02 1.3714910964e+00
1.5589652954e+02 1.3583635297e+00
1.5890740169e+02 1.3453247564e+00
1.6197240728e+02 1.3322703447e+00
1.6509259044e+02 1.3188381250e+00
1.6826901409e+02 1.3046876776e+00
1.7150276031e+02 1.2893534130e+00
1.7479493070e+02 1.2724584641e+00
1.7814664679e+02 1.2544445798e+00
1.8155905037e+02 1.2361992094e+00
1.8503330390e+02 1.2183994569e+00
1.8857059093e+02 1.2009730864e+00
1.9217211647e+02 1.1831948589e+00
1.9583910742e+02 1.1649194851e+00
1.9957281298e+02 1.1463313937e+00
2.0337450507e+02 1.1272331937e+00
2.0724547877e+02 1.1074993033e+00
2.1118705278e+02 1.0874594140e+00
2.1520056983e+02 1.0674152499e+00
2.1928739716e+02 1.0473807568e+00
2.2344892701e+02 1.0274214418e+00
2.2768657703e+02 1.0075740556e+00
2.3200179082e+02 9.8749183865e-01
2.3639603841e+02 9.6643402748e-01
2.4087081674e+02 9.4403004047e-01
2.4542765019e+02 9.2082298677e-01
2.5006809109e+02 8.9758895440e-01
2.5479372026e+02 8.7466946606e-01
2.5960614754e+02 8.5133390617e-01
2.6450701231e+02 8.2624940818e-01
2.6949798412e+02 7.9989514045e-01
2.7458076319e+02 7.7312744435e-01
2.7975708102e+02 7.4621784449e-01
2.8502870098e+02 7.1941157205e-01
2.9039741890e+02 6.9231791356e-01
2.9586506368e+02 6.6460863099e-01
3.0143349794e+02 6.3660723925e-01
3.0710461862e+02 6.0907263861e-01
3.1288035765e+02 5.8221642412e-01
3.1876268259e+02 5.5610015334e-01
3.2475359732e+02 5.3024618384e-01
3.3085514269e+02 5.0386310660e-01
3.3706939727e+02 4.7623542350e-01
3.4339847799e+02 4.4791781571e-01
3.4984454091e+02 4.1982528546e-01
3.5640978188e+02 3.9264630902e-01
3.6309643733e+02 3.6630421734e-01
3.6990678487e+02 3.4060928413e-01
3.7684314396e+02 3.1533774014e-01
3.8390787633e+02 2.8980809560e-01
3.9110338615e+02 2.6493759171e-01
3.9843211953e+02 2.4072104827e-01
4.0589656306e+02 2.1682606326e-01
4.1349924044e+02 1.9379389942e-01
4.2124270614e+02 1.7229323183e-01
4.2912953435e+02 1.5263634453e-01
4.3716230063e+02 1.3454748873e-01
4.4534355328e+02 1.1751195736e-01
4.5367577013e+02 1.0163846026e-01
4.6216129653e+02 8.7062076729e-02
4.7080225980e+02 7.3974260134e-02
4.7960045663e+02 6.2587026750e-02
4.8855721127e+02 5.2659581738e-02
4.9767320634e+02 4.3971331637e-02
5.0694829158e+02 3.6342108393e-02
5.1638128212e+02 2.9721069901e-02
5.2596976245e+02 2.4250923848e-02
5.3570991718e+02 1.9758108750e-02
5.4559641198e+02 1.5976254961e-02
5.5562234697e+02 1.2933719568e-02
5.6577930043e+02 1.0520012279e-02
5.7605747209e+02 8.5141471509e-03
5.8644592435e+02 6.8272598940e-03
5.9693290738e+02 5.5028802289e-03
6.0750624294e+02 4.4840011733e-03
6.1815373393e+02 3.7287743097e-03
6.2886356302e+02 3.1508614739e-03
6.3962464611e+02 2.6872252900e-03
6.5042691296e+02 2.3082620413e-03
6.6126149787e+02 1.9948815794e-03
6.7212083508e+02 1.7266873592e-03
6.8299866488e+02 1.5067649975e-03
6.9388996500e+02 1.3323693011e-03
7.0479082754e+02 1.1919263390e-03
7.1569830307e+02 1.0687720461e-03
7.2661023225e+02 9.6678013221e-04
7.3752508151e+02 8.8253324592e-04
7.4844179417e+02 8.0943264077e-04
7.5935966386e+02 7.4614169528e-04
7.7027823245e+02 6.9099010738e-04
7.8119721165e+02 6.4269479364e-04
7.9211642543e+02 6.0041675942e-04
8.0303576952e+02 5.6327262932e-04
8.1395518398e+02 5.3049869537e-04
8.2487463536e+02 5.0149804563e-04
8.3579410559e+02 4.7577106294e-04
8.4671358515e+02 4.5290536135e-04
8.5763306920e+02 4.3254671302e-04
8.6855255537e+02 4.1439476358e-04
8.7947204248e+02 3.9818734948e-04
8.9039153002e+02 3.8369632071e-04
9.0131101774e+02 3.7071919023e-04
9.1223050554e+02 3.5907979144e-04
9.2314999336e+02 3.4862443962e-04
9.3406948120e+02 3.3922617592e-04
9.4498896904e+02 3.3077619186e-04
9.5590845688e+02 3.2318853926e-04
9.6682794473e+02 3.1638522970e-04
9.7774743257e+02 3.1030297394e-04
9.8866692042e+02 3.0487599004e-04
9.9958640826e+02 3.0004924807e-04
1.0105058961e+03 2.9576137421e-04
1.0214253840e+03 2.9196341844e-04
1.0323448718e+03 2.8859796015e-04
1.0432643596e+03 2.8562335245e-04
1.0541838475e+03 2.8298685067e-04
1.0651033353e+03 2.8065780882e-04
1.0760228232e+03 2.7859312744e-04
1.0869423110e+03 2.7678003654e-04
1.0978617989e+03 2.7518754378e-04
1.1087812867e+03 2.7381714283e-04
1.1197007746e+03 2.7263929021e-04
1.1306202624e+03 2.7165870085e-04
1.1415397502e+03 2.7083963907e-04
1.1524592381e+03 2.7018836776e-04
1.1633787259e+03 2.6966607110e-04
1.1742982138e+03 2.6928474140e-04
1.1852177016e+03 2.6900537129e-04
1.1961371895e+03 2.6884528787e-04
1.2070566773e+03 2.6876362470e-04
1.2179761652e+03 2.6878254079e-04
1.2288956530e+03 2.6886015624e-04
1.2398151408e+03 2.6902460442e-04
1.2507346287e+03 2.6923174189e-04
1.2616541165e+03 2.6951252006e-04
1.2725736044e+03 2.6981683093e-04
1.2834930922e+03 2.7017750271e-04
1.2944125801e+03 2.7054116512e-04
1.3053320679e+03 2.7094692412e-04
1.3162515558e+03 2.7133983090e-04
1.3271710436e+03 2.7176294337e-04
1.3380905314e+03 2.7215630885e-04
1.3490100193e+03 2.7256718987e-04
1.3599295071e+03 2.7293506442e-04
1.3708489950e+03 2.7331691592e-04
1.3817684828e+03 2.7365452034e-04
1.3926879707e+03 2.7401301387e-04
1.4036074585e+03 2.7433264251e-04
1.4145269464e+03 2.7468184080e-04
1.4254464342e+03 2.7499688887e-04
1.4363659220e+03 2.7534800803e-04
1.4472854099e+03 2.7566720313e-04
1.4582048977e+03 2.7602475468e-04
1.4691243856e+03 2.7634624246e-04
1.4800438734e+03 2.7670062755e-04
1.4909633613e+03 2.7700742548e-04
1.5018828491e+03 2.7733721729e-04
1.5128023370e+03 2.7760643353e-04
1.5237218248e+03 2.7789111299e-04
1.5346413126e+03 2.7810668577e-04
1.5455608005e+03 2.7833698494e-04
1.5564802883e+03 2.7849735603e-04
1.5673997762e+03 2.7868063526e-04
1.5783192640e+03 2.7880197253e-04
1.5892387519e+03 2.7896194955e-04
1.6001582397e+03 2.7907271548e-04
1.6110777276e+03 2.7923897483e-04
1.6219972154e+03 2.7936653235e-04
1.6329167032e+03 2.7956072321e-04
1.6438361911e+03 2.7971849844e-04
1.6547556789e+03 2.7994475858e-04
1.6656751668e+03 2.8012968518e-04
1.6765946546e+03 2.8038246085e-04
1.6875141425e+03 2.8059051065e-04
1.6984336303e+03 2.8086923779e-04
1.7093531182e+03 2.8110028973e-04
1.7202726060e+03 2.8140183211e-04
1.7311920938e+03 2.8164493035e-04
1.7421115817e+03 2.8194974535e-04
1.7530310695e+03 2.8217733664e-04
1.7639505574e+03 2.8245503725e-04
1.7748700452e+03 2.8263989307e-04
1.7857895331e+03 2.8287276272e-04
1.7967090209e+03 2.8300921908e-04
1.8076285088e+03 2.8320180849e-04
1.8185479966e+03 2.8329943094e-04
1.8294674844e+03 2.8346058008e-04
1.8403869723e+03 2.8352436629e-04
1.8513064601e+03 2.8365556222e-04
1.8622259480e+03 2.8368672584e-04
1.8731454358e+03 2.8379284877e-04
1.8840649237e+03 2.8380271786e-04
1.8949844115e+03 2.8390193547e-04
1.9059038994e+03 2.8391365951e-04
1.9168233872e+03 2.8403012084e-04
1.9277428750e+03 2.8406544429e-04
1.9386623629e+03 2.8421447130e-04
1.9495818507e+03 2.8428103328e-04
1.9605013386e+03 2.8446021042e-04
1.9714208264e+03 2.8454830041e-04
1.9823403143e+03 2.8474266280e-04
1.9932598021e+03 2.8483936104e-04
2.0041792900e+03 2.8504004444e-04
2.0150987778e+03 2.8514310209e-04
2.0260182656e+03 2.8534924116e-04
2.0369377535e+03 2.8545560835e-04
2.0478572413e+03 2.8565536367e-04
2.0587767292e+03 2.8574301644e-04
2.0696962170e+03 2.8590438713e-04
2.0806157049e+03 2.8593689211e-04
2.0915351927e+03 2.8602558638e-04
2.1024546806e+03 2.8597707465e-04
2.1133741684e+03 2.8598068992e-04
2.1242936562e+03 2.8585458751e-04
2.1352131441e+03 2.8579522275e-04
2.1461326319e+03 2.8563074065e-04
2.1570521198e+03 2.8556473689e-04
2.1679716076e+03 2.8542984889e-04
2.1788910955e+03 2.8543599541e-04
2.1898105833e+03 2.8541250797e-04
2.2007300712e+03 2.8557378890e-04
2.2116495590e+03 2.8573517625e-04
2.2225690468e+03 2.8611521314e-04
2.2334885347e+03 2.8650896924e-04
2.2444080225e+03 2.8714881219e-04
2.2553275104e+03 2.8781319182e-04
2.2662469982e+03 2.8876420425e-04
2.2771664861e+03 2.8976526753e-04
2.2880859739e+03 2.9111547314e-04
2.2990054618e+03 2.9255372877e-04
2.3099249496e+03 2.9441374483e-04
2.3208444374e+03 2.9639524549e-04
2.3317639253e+03 2.9886153200e-04
2.3426834131e+03 3.0146156027e-04
2.3536029010e+03 3.0458552338e-04
2.3645223888e+03 3.0782747775e-04
2.3754418767e+03 3.1160577596e-04
2.3863613645e+03 3.1546572074e-04
2.3972808524e+03 3.1985878511e-04
2.4082003402e+03 3.2429315421e-04
2.4191198280e+03 3.2925254869e-04
2.4300393159e+03 3.3421718375e-04
2.4409588037e+03 3.3969545590e-04
2.4518782916e+03 3.4515230844e-04
2.4627977794e+03 3.5111394937e-04
2.4737172673e+03 3.5704893138e-04
2.4846367551e+03 3.6349203157e-04
2.4955562430e+03 3.6993436682e-04
2.5064757308e+03 3.7690272705e-04
2.5173952187e+03 3.8392947112e-04
2.5283147065e+03 3.9151363564e-04
2.5392341943e+03 3.9925280587e-04
2.5501536822e+03 4.0759716297e-04
2.5610731700e+03 4.1623371418e-04
2.5719926579e+03 4.2553388783e-04
2.5829121457e+03 4.3529267964e-04
2.5938316336e+03 4.4576629974e-04
2.6047511214e+03 4.5687275666e-04
2.6156706093e+03 4.6871444830e-04
2.6265900971e+03 4.8134149756e-04
2.6375095849e+03 4.9466701890e-04
2.6484290728e+03 5.0887654846e-04
2.6593485606e+03 5.2367126005e-04
2.6702680485e+03 5.3936360256e-04
2.6811875363e+03 5.5543864999e-04
2.6921070242e+03 5.7229768997e-04
2.7030265120e+03 5.8923255264e-04
2.7139459999e+03 6.0664305063e-04
2.7248654877e+03 6.2369900929e-04
2.7357849755e+03 6.4063724394e-04
2.7467044634e+03 6.5666172194e-04
2.7576239512e+03 6.7161137082e-04
2.7685434391e+03 6.8501391878e-04
2.7794629269e+03 6.9604422403e-04
2.7903824148e+03 7.0501054087e-04
2.8013019026e+03 7.1027996112e-04
2.8122213905e+03 7.1393816765e-04
