# Rotated two-point auto-correlation R_11^R (mean-aligned) — case DNS_re250_mr02_11 (MR02), y^+ = 15
# Definition: R_{ij}^R is computed by rotating (x,z) into the local mean-flow frame.
# Columns: delta_z_plus    R
0.0000000000e+00 1.0000000000e+00
3.5969522218e+00 9.6785000404e-01
7.1939044435e+00 8.8207540709e-01
1.0790856665e+01 7.6502972464e-01
1.4387808887e+01 6.3673413293e-01
1.7984761109e+01 5.1042961233e-01
2.1581713331e+01 3.9369523421e-01
2.5178665552e+01 2.9029221831e-01
2.8775617774e+01 2.0156833292e-01
3.2372569996e+01 1.2741012166e-01
3.5969522218e+01 6.6871685104e-02
3.9566474439e+01 1.8609998532e-02
4.3163426661e+01 -1.8848596074e-02
4.6760378883e+01 -4.7007261794e-02
5.0357331105e+01 -6.7376606153e-02
5.3954283326e+01 -8.1415209077e-02
5.7551235548e+01 -9.0431906048e-02
6.1148187770e+01 -9.5514607337e-02
6.4745139992e+01 -9.7540195710e-02
6.8342092214e+01 -9.7229730758e-02
7.1939044435e+01 -9.5205529205e-02
7.5535996657e+01 -9.2008295121e-02
7.9132948879e+01 -8.8059520599e-02
8.2729901101e+01 -8.3644198829e-02
8.6326853322e+01 -7.8952459816e-02
8.9923805544e+01 -7.4128417282e-02
9.3520757766e+01 -6.9267596293e-02
9.7117709988e+01 -6.4395985015e-02
1.0071466221e+02 -5.9489852356e-02
1.0431161443e+02 -5.4533837704e-02
1.0790856665e+02 -4.9592706714e-02
1.1150551887e+02 -4.4837303805e-02
1.1510247110e+02 -4.0485662668e-02
1.1869942332e+02 -3.6707183246e-02
1.2229637554e+02 -3.3572973191e-02
1.2589332776e+02 -3.1073052663e-02
1.2949027998e+02 -2.9164575877e-02
1.3308723221e+02 -2.7799878590e-02
1.3668418443e+02 -2.6913959703e-02
1.4028113665e+02 -2.6438273590e-02
1.4387808887e+02 -2.6337488881e-02
1.4747504109e+02 -2.6595833562e-02
1.5107199331e+02 -2.7176939093e-02
1.5466894554e+02 -2.8005123022e-02
1.5826589776e+02 -2.8972436441e-02
1.6186284998e+02 -2.9945564352e-02
1.6545980220e+02 -3.0772662873e-02
1.6905675442e+02 -3.1344346878e-02
1.7265370664e+02 -3.1661905683e-02
1.7625065887e+02 -3.1803817601e-02
1.7984761109e+02 -3.1838194371e-02
1.8344456331e+02 -3.1799019762e-02
1.8704151553e+02 -3.1699330408e-02
1.9063846775e+02 -3.1525744439e-02
1.9423541998e+02 -3.1239547808e-02
1.9783237220e+02 -3.0825621305e-02
2.0142932442e+02 -3.0328067282e-02
2.0502627664e+02 -2.9810659387e-02
2.0862322886e+02 -2.9305283519e-02
2.1222018108e+02 -2.8801581973e-02
2.1581713331e+02 -2.8271707804e-02
2.1941408553e+02 -2.7694786577e-02
2.2301103775e+02 -2.7061049268e-02
2.2660798997e+02 -2.6393497039e-02
2.3020494219e+02 -2.5764998711e-02
2.3380189441e+02 -2.5259680959e-02
2.3739884664e+02 -2.4920869271e-02
2.4099579886e+02 -2.4727377698e-02
2.4459275108e+02 -2.4613232851e-02
2.4818970330e+02 -2.4520562535e-02
2.5178665552e+02 -2.4411235457e-02
2.5538360775e+02 -2.4237225938e-02
2.5898055997e+02 -2.3945369372e-02
2.6257751219e+02 -2.3502601956e-02
2.6617446441e+02 -2.2898420193e-02
2.6977141663e+02 -2.2148135474e-02
2.7336836885e+02 -2.1308215691e-02
2.7696532108e+02 -2.0481779855e-02
2.8056227330e+02 -1.9771347629e-02
2.8415922552e+02 -1.9195278818e-02
2.8775617774e+02 -1.8680328613e-02
2.9135312996e+02 -1.8145169094e-02
2.9495008218e+02 -1.7546123472e-02
2.9854703441e+02 -1.6854491169e-02
3.0214398663e+02 -1.6049285162e-02
3.0574093885e+02 -1.5126874289e-02
3.0933789107e+02 -1.4101464454e-02
3.1293484329e+02 -1.3008431432e-02
3.1653179552e+02 -1.1907359319e-02
3.2012874774e+02 -1.0865423067e-02
3.2372569996e+02 -9.9228296322e-03
3.2732265218e+02 -9.0703867042e-03
3.3091960440e+02 -8.2611225747e-03
3.3451655662e+02 -7.4457116543e-03
3.3811350885e+02 -6.6120747020e-03
3.4171046107e+02 -5.8125771046e-03
3.4530741329e+02 -5.1540030225e-03
3.4890436551e+02 -4.7397103878e-03
3.5250131773e+02 -4.6038357063e-03
3.5609826995e+02 -4.6821923652e-03
3.5969522218e+02 -4.8325301666e-03
3.6329217440e+02 -4.8911603784e-03
3.6688912662e+02 -4.7472465811e-03
3.7048607884e+02 -4.3968591816e-03
3.7408303106e+02 -3.9219865724e-03
3.7767998329e+02 -3.4194549963e-03
3.8127693551e+02 -2.9489524460e-03
3.8487388773e+02 -2.5193227453e-03
3.8847083995e+02 -2.1032952014e-03
3.9206779217e+02 -1.6750192887e-03
3.9566474439e+02 -1.2361294146e-03
3.9926169662e+02 -8.1633932084e-04
4.0285864884e+02 -4.7123165684e-04
4.0645560106e+02 -2.8199727405e-04
4.1005255328e+02 -3.1984258804e-04
4.1364950550e+02 -5.9455298367e-04
4.1724645772e+02 -1.0485679541e-03
4.2084340995e+02 -1.5889020082e-03
4.2444036217e+02 -2.0925899496e-03
4.2803731439e+02 -2.4262284422e-03
4.3163426661e+02 -2.5229843465e-03
4.3523121883e+02 -2.4082328267e-03
4.3882817106e+02 -2.1142256532e-03
4.4242512328e+02 -1.6019812086e-03
4.4602207550e+02 -7.8032051957e-04
4.4961902772e+02 4.1147755768e-04
4.5321597994e+02 1.9384121189e-03
4.5681293216e+02 3.6808770837e-03
4.6040988439e+02 5.4913211749e-03
4.6400683661e+02 7.2231233858e-03
4.6760378883e+02 8.7372165155e-03
4.7120074105e+02 9.9363325712e-03
4.7479769327e+02 1.0792464088e-02
4.7839464549e+02 1.1314265910e-02
4.8199159772e+02 1.1494666430e-02
4.8558854994e+02 1.1317596666e-02
4.8918550216e+02 1.0809463346e-02
4.9278245438e+02 1.0047877654e-02
4.9637940660e+02 9.1205837218e-03
4.9997635883e+02 8.1104455162e-03
5.0357331105e+02 7.1233946164e-03
5.0717026327e+02 6.2748373985e-03
5.1076721549e+02 5.6354320337e-03
5.1436416771e+02 5.2010161597e-03
5.1796111993e+02 4.9043827890e-03
5.2155807216e+02 4.6485153881e-03
5.2515502438e+02 4.3327743090e-03
5.2875197660e+02 3.8813831051e-03
5.3234892882e+02 3.2491523368e-03
5.3594588104e+02 2.4068253287e-03
5.3954283326e+02 1.3512749626e-03
5.4313978549e+02 1.2334714897e-04
5.4673673771e+02 -1.1941560316e-03
5.5033368993e+02 -2.5088906054e-03
5.5393064215e+02 -3.7351635195e-03
5.5752759437e+02 -4.7669261497e-03
5.6112454660e+02 -5.4886526514e-03
5.6472149882e+02 -5.8376541413e-03
5.6831845104e+02 -5.8293473010e-03
5.7191540326e+02 -5.5239639281e-03
5.7551235548e+02 -4.9883291662e-03
5.7910930770e+02 -4.2916169419e-03
5.8270625993e+02 -3.5057137110e-03
5.8630321215e+02 -2.6784805469e-03
5.8990016437e+02 -1.8187811079e-03
5.9349711659e+02 -9.1998229844e-04
5.9709406881e+02 8.1884737873e-06
6.0069102103e+02 9.1746993147e-04
6.0428797326e+02 1.7257000852e-03
6.0788492548e+02 2.3592398850e-03
6.1148187770e+02 2.7994297216e-03
6.1507882992e+02 3.0841973708e-03
6.1867578214e+02 3.2809837582e-03
6.2227273437e+02 3.4634238792e-03
6.2586968659e+02 3.6774033306e-03
6.2946663881e+02 3.9122490568e-03
6.3306359103e+02 4.1244034204e-03
6.3666054325e+02 4.2896826761e-03
6.4025749547e+02 4.4175988339e-03
6.4385444770e+02 4.5202767663e-03
6.4745139992e+02 4.5880783038e-03
6.5104835214e+02 4.5984374548e-03
6.5464530436e+02 4.5218975137e-03
6.5824225658e+02 4.3218234317e-03
6.6183920880e+02 3.9826801865e-03
6.6543616103e+02 3.5292231402e-03
6.6903311325e+02 3.0160845515e-03
6.7263006547e+02 2.5240128261e-03
6.7622701769e+02 2.1445124393e-03
6.7982396991e+02 1.9387424372e-03
6.8342092214e+02 1.9105762454e-03
6.8701787436e+02 2.0101933451e-03
6.9061482658e+02 2.1448978979e-03
6.9421177880e+02 2.1984469885e-03
6.9780873102e+02 2.0887604962e-03
7.0140568324e+02 1.8089873793e-03
7.0500263547e+02 1.4059005002e-03
7.0859958769e+02 9.4812623768e-04
7.1219653991e+02 5.0625961523e-04
7.1579349213e+02 1.3034642076e-04
7.1939044435e+02 -1.5479208591e-04
7.2298739657e+02 -3.4138725268e-04
7.2658434880e+02 -4.4507208847e-04
7.3018130102e+02 -4.8817614754e-04
7.3377825324e+02 -4.6849893847e-04
7.3737520546e+02 -3.6659883358e-04
7.4097215768e+02 -1.4946532224e-04
7.4456910991e+02 2.2798877377e-04
7.4816606213e+02 7.8050042643e-04
7.5176301435e+02 1.4586066166e-03
7.5535996657e+02 2.1644715970e-03
7.5895691879e+02 2.7771623443e-03
7.6255387101e+02 3.1824575499e-03
7.6615082324e+02 3.3052319782e-03
7.6974777546e+02 3.1264115149e-03
7.7334472768e+02 2.6931483082e-03
7.7694167990e+02 2.1174360605e-03
7.8053863212e+02 1.5345042714e-03
7.8413558434e+02 1.0376115548e-03
7.8773253657e+02 6.6351527171e-04
7.9132948879e+02 4.2464615823e-04
7.9492644101e+02 3.2402722114e-04
7.9852339323e+02 3.4707796333e-04
8.0212034545e+02 4.4795552071e-04
8.0571729768e+02 5.5640303345e-04
8.0931424990e+02 6.1310290250e-04
8.1291120212e+02 5.9752916976e-04
8.1650815434e+02 5.2517626157e-04
8.2010510656e+02 4.0665012819e-04
8.2370205878e+02 2.3676069903e-04
8.2729901101e+02 4.1794031764e-05
8.3089596323e+02 -1.1411977313e-04
8.3449291545e+02 -1.7955463800e-04
8.3808986767e+02 -1.6526838767e-04
8.4168681989e+02 -1.4979335592e-04
8.4528377211e+02 -2.2986301826e-04
8.4888072434e+02 -4.6305194690e-04
8.5247767656e+02 -8.4022564434e-04
8.5607462878e+02 -1.3064832329e-03
8.5967158100e+02 -1.8014200666e-03
8.6326853322e+02 -2.2766395496e-03
8.6686548545e+02 -2.7118865398e-03
8.7046243767e+02 -3.1286267797e-03
8.7405938989e+02 -3.5692565107e-03
8.7765634211e+02 -4.0487938204e-03
8.8125329433e+02 -4.5340022863e-03
8.8485024655e+02 -4.9800471666e-03
8.8844719878e+02 -5.3649206859e-03
8.9204415100e+02 -5.6801478262e-03
8.9564110322e+02 -5.9229226134e-03
8.9923805544e+02 -6.1061981717e-03
9.0283500766e+02 -6.2604448411e-03
9.0643195988e+02 -6.4168442461e-03
9.1002891211e+02 -6.5860681465e-03
9.1362586433e+02 -6.7521162086e-03
9.1722281655e+02 -6.8784532711e-03
9.2081976877e+02 -6.9261399528e-03
9.2441672099e+02 -6.8784532711e-03
9.2801367322e+02 -6.7521162086e-03
9.3161062544e+02 -6.5860681465e-03
9.3520757766e+02 -6.4168442461e-03
9.3880452988e+02 -6.2604448411e-03
9.4240148210e+02 -6.1061981717e-03
9.4599843432e+02 -5.9229226134e-03
9.4959538655e+02 -5.6801478262e-03
9.5319233877e+02 -5.3649206859e-03
9.5678929099e+02 -4.9800471666e-03
9.6038624321e+02 -4.5340022863e-03
9.6398319543e+02 -4.0487938204e-03
9.6758014765e+02 -3.5692565107e-03
9.7117709988e+02 -3.1286267797e-03
9.7477405210e+02 -2.7118865398e-03
9.7837100432e+02 -2.2766395496e-03
9.8196795654e+02 -1.8014200666e-03
9.8556490876e+02 -1.3064832329e-03
9.8916186099e+02 -8.4022564434e-04
9.9275881321e+02 -4.6305194690e-04
9.9635576543e+02 -2.2986301826e-04
9.9995271765e+02 -1.4979335592e-04
1.0035496699e+03 -1.6526838767e-04
1.0071466221e+03 -1.7955463800e-04
1.0107435743e+03 -1.1411977313e-04
1.0143405265e+03 4.1794031764e-05
1.0179374788e+03 2.3676069903e-04
1.0215344310e+03 4.0665012819e-04
1.0251313832e+03 5.2517626157e-04
1.0287283354e+03 5.9752916976e-04
1.0323252876e+03 6.1310290250e-04
1.0359222399e+03 5.5640303345e-04
1.0395191921e+03 4.4795552071e-04
1.0431161443e+03 3.4707796333e-04
1.0467130965e+03 3.2402722114e-04
1.0503100488e+03 4.2464615823e-04
1.0539070010e+03 6.6351527171e-04
1.0575039532e+03 1.0376115548e-03
1.0611009054e+03 1.5345042714e-03
1.0646978576e+03 2.1174360605e-03
1.0682948099e+03 2.6931483082e-03
1.0718917621e+03 3.1264115149e-03
1.0754887143e+03 3.3052319782e-03
1.0790856665e+03 3.1824575499e-03
1.0826826188e+03 2.7771623443e-03
1.0862795710e+03 2.1644715970e-03
1.0898765232e+03 1.4586066166e-03
1.0934734754e+03 7.8050042643e-04
1.0970704276e+03 2.2798877377e-04
1.1006673799e+03 -1.4946532224e-04
1.1042643321e+03 -3.6659883358e-04
1.1078612843e+03 -4.6849893847e-04
1.1114582365e+03 -4.8817614754e-04
1.1150551887e+03 -4.4507208847e-04
1.1186521410e+03 -3.4138725268e-04
1.1222490932e+03 -1.5479208591e-04
1.1258460454e+03 1.3034642076e-04
1.1294429976e+03 5.0625961523e-04
1.1330399499e+03 9.4812623768e-04
1.1366369021e+03 1.4059005002e-03
1.1402338543e+03 1.8089873793e-03
1.1438308065e+03 2.0887604962e-03
1.1474277587e+03 2.1984469885e-03
1.1510247110e+03 2.1448978979e-03
1.1546216632e+03 2.0101933451e-03
1.1582186154e+03 1.9105762454e-03
1.1618155676e+03 1.9387424372e-03
1.1654125199e+03 2.1445124393e-03
1.1690094721e+03 2.5240128261e-03
1.1726064243e+03 3.0160845515e-03
1.1762033765e+03 3.5292231402e-03
1.1798003287e+03 3.9826801865e-03
1.1833972810e+03 4.3218234317e-03
1.1869942332e+03 4.5218975137e-03
1.1905911854e+03 4.5984374548e-03
1.1941881376e+03 4.5880783038e-03
1.1977850898e+03 4.5202767663e-03
1.2013820421e+03 4.4175988339e-03
1.2049789943e+03 4.2896826761e-03
1.2085759465e+03 4.1244034204e-03
1.2121728987e+03 3.9122490568e-03
1.2157698510e+03 3.6774033306e-03
1.2193668032e+03 3.4634238792e-03
1.2229637554e+03 3.2809837582e-03
1.2265607076e+03 3.0841973708e-03
1.2301576598e+03 2.7994297216e-03
1.2337546121e+03 2.3592398850e-03
1.2373515643e+03 1.7257000852e-03
1.2409485165e+03 9.1746993147e-04
1.2445454687e+03 8.1884737873e-06
1.2481424210e+03 -9.1998229844e-04
1.2517393732e+03 -1.8187811079e-03
1.2553363254e+03 -2.6784805469e-03
1.2589332776e+03 -3.5057137110e-03
1.2625302298e+03 -4.2916169419e-03
1.2661271821e+03 -4.9883291662e-03
1.2697241343e+03 -5.5239639281e-03
1.2733210865e+03 -5.8293473010e-03
1.2769180387e+03 -5.8376541413e-03
1.2805149909e+03 -5.4886526514e-03
1.2841119432e+03 -4.7669261497e-03
1.2877088954e+03 -3.7351635195e-03
1.2913058476e+03 -2.5088906054e-03
1.2949027998e+03 -1.1941560316e-03
1.2984997521e+03 1.2334714897e-04
1.3020967043e+03 1.3512749626e-03
1.3056936565e+03 2.4068253287e-03
1.3092906087e+03 3.2491523368e-03
1.3128875609e+03 3.8813831051e-03
1.3164845132e+03 4.3327743090e-03
1.3200814654e+03 4.6485153881e-03
1.3236784176e+03 4.9043827890e-03
1.3272753698e+03 5.2010161597e-03
1.3308723221e+03 5.6354320337e-03
1.3344692743e+03 6.2748373985e-03
1.3380662265e+03 7.1233946164e-03
1.3416631787e+03 8.1104455162e-03
1.3452601309e+03 9.1205837218e-03
1.3488570832e+03 1.0047877654e-02
1.3524540354e+03 1.0809463346e-02
1.3560509876e+03 1.1317596666e-02
1.3596479398e+03 1.1494666430e-02
1.3632448920e+03 1.1314265910e-02
1.3668418443e+03 1.0792464088e-02
1.3704387965e+03 9.9363325712e-03
1.3740357487e+03 8.7372165155e-03
1.3776327009e+03 7.2231233858e-03
1.3812296532e+03 5.4913211749e-03
1.3848266054e+03 3.6808770837e-03
1.3884235576e+03 1.9384121189e-03
1.3920205098e+03 4.1147755768e-04
1.3956174620e+03 -7.8032051957e-04
1.3992144143e+03 -1.6019812086e-03
1.4028113665e+03 -2.1142256532e-03
1.4064083187e+03 -2.4082328267e-03
1.4100052709e+03 -2.5229843465e-03
1.4136022232e+03 -2.4262284422e-03
1.4171991754e+03 -2.0925899496e-03
1.4207961276e+03 -1.5889020082e-03
1.4243930798e+03 -1.0485679541e-03
1.4279900320e+03 -5.9455298367e-04
1.4315869843e+03 -3.1984258804e-04
1.4351839365e+03 -2.8199727405e-04
1.4387808887e+03 -4.7123165684e-04
1.4423778409e+03 -8.1633932084e-04
1.4459747931e+03 -1.2361294146e-03
1.4495717454e+03 -1.6750192887e-03
1.4531686976e+03 -2.1032952014e-03
1.4567656498e+03 -2.5193227453e-03
1.4603626020e+03 -2.9489524460e-03
1.4639595543e+03 -3.4194549963e-03
1.4675565065e+03 -3.9219865724e-03
1.4711534587e+03 -4.3968591816e-03
1.4747504109e+03 -4.7472465811e-03
1.4783473631e+03 -4.8911603784e-03
1.4819443154e+03 -4.8325301666e-03
1.4855412676e+03 -4.6821923652e-03
1.4891382198e+03 -4.6038357063e-03
1.4927351720e+03 -4.7397103878e-03
1.4963321243e+03 -5.1540030225e-03
1.4999290765e+03 -5.8125771046e-03
1.5035260287e+03 -6.6120747020e-03
1.5071229809e+03 -7.4457116543e-03
1.5107199331e+03 -8.2611225747e-03
1.5143168854e+03 -9.0703867042e-03
1.5179138376e+03 -9.9228296322e-03
1.5215107898e+03 -1.0865423067e-02
1.5251077420e+03 -1.1907359319e-02
1.5287046943e+03 -1.3008431432e-02
1.5323016465e+03 -1.4101464454e-02
1.5358985987e+03 -1.5126874289e-02
1.5394955509e+03 -1.6049285162e-02
1.5430925031e+03 -1.6854491169e-02
1.5466894554e+03 -1.7546123472e-02
1.5502864076e+03 -1.8145169094e-02
1.5538833598e+03 -1.8680328613e-02
1.5574803120e+03 -1.9195278818e-02
1.5610772642e+03 -1.9771347629e-02
1.5646742165e+03 -2.0481779855e-02
1.5682711687e+03 -2.1308215691e-02
1.5718681209e+03 -2.2148135474e-02
1.5754650731e+03 -2.2898420193e-02
1.5790620254e+03 -2.3502601956e-02
1.5826589776e+03 -2.3945369372e-02
1.5862559298e+03 -2.4237225938e-02
1.5898528820e+03 -2.4411235457e-02
1.5934498342e+03 -2.4520562535e-02
1.5970467865e+03 -2.4613232851e-02
1.6006437387e+03 -2.4727377698e-02
1.6042406909e+03 -2.4920869271e-02
1.6078376431e+03 -2.5259680959e-02
1.6114345954e+03 -2.5764998711e-02
1.6150315476e+03 -2.6393497039e-02
1.6186284998e+03 -2.7061049268e-02
1.6222254520e+03 -2.7694786577e-02
1.6258224042e+03 -2.8271707804e-02
1.6294193565e+03 -2.8801581973e-02
1.6330163087e+03 -2.9305283519e-02
1.6366132609e+03 -2.9810659387e-02
1.6402102131e+03 -3.0328067282e-02
1.6438071653e+03 -3.0825621305e-02
1.6474041176e+03 -3.1239547808e-02
1.6510010698e+03 -3.1525744439e-02
1.6545980220e+03 -3.1699330408e-02
1.6581949742e+03 -3.1799019762e-02
1.6617919265e+03 -3.1838194371e-02
1.6653888787e+03 -3.1803817601e-02
1.6689858309e+03 -3.1661905683e-02
1.6725827831e+03 -3.1344346878e-02
1.6761797353e+03 -3.0772662873e-02
1.6797766876e+03 -2.9945564352e-02
1.6833736398e+03 -2.8972436441e-02
1.6869705920e+03 -2.8005123022e-02
1.6905675442e+03 -2.7176939093e-02
1.6941644965e+03 -2.6595833562e-02
1.6977614487e+03 -2.6337488881e-02
1.7013584009e+03 -2.6438273590e-02
1.7049553531e+03 -2.6913959703e-02
1.7085523053e+03 -2.7799878590e-02
1.7121492576e+03 -2.9164575877e-02
1.7157462098e+03 -3.1073052663e-02
1.7193431620e+03 -3.3572973191e-02
1.7229401142e+03 -3.6707183246e-02
1.7265370664e+03 -4.0485662668e-02
1.7301340187e+03 -4.4837303805e-02
1.7337309709e+03 -4.9592706714e-02
1.7373279231e+03 -5.4533837704e-02
1.7409248753e+03 -5.9489852356e-02
1.7445218276e+03 -6.4395985015e-02
1.7481187798e+03 -6.9267596293e-02
1.7517157320e+03 -7.4128417282e-02
1.7553126842e+03 -7.8952459816e-02
1.7589096364e+03 -8.3644198829e-02
1.7625065887e+03 -8.8059520599e-02
1.7661035409e+03 -9.2008295121e-02
1.7697004931e+03 -9.5205529205e-02
1.7732974453e+03 -9.7229730758e-02
1.7768943976e+03 -9.7540195710e-02
1.7804913498e+03 -9.5514607337e-02
1.7840883020e+03 -9.0431906048e-02
1.7876852542e+03 -8.1415209077e-02
1.7912822064e+03 -6.7376606153e-02
1.7948791587e+03 -4.7007261794e-02
1.7984761109e+03 -1.8848596074e-02
1.8020730631e+03 1.8609998532e-02
1.8056700153e+03 6.6871685104e-02
1.8092669675e+03 1.2741012166e-01
1.8128639198e+03 2.0156833292e-01
1.8164608720e+03 2.9029221831e-01
1.8200578242e+03 3.9369523421e-01
1.8236547764e+03 5.1042961233e-01
1.8272517287e+03 6.3673413293e-01
1.8308486809e+03 7.6502972464e-01
1.8344456331e+03 8.8207540709e-01
1.8380425853e+03 9.6785000404e-01
