# Rotated Reynolds stress Morkovin's scaling
# Columns: y_plus    -rho u''v''rotated/tau_wall
3.9832992606e-01 1.1781641246e-04
1.1887924427e+00 2.0540173668e-03
1.9799514194e+00 8.8449965721e-03
2.7719943680e+00 2.3270926300e-02
3.5651283791e+00 4.7047983855e-02
4.3595770683e+00 8.0261421408e-02
5.1555775073e+00 1.2185235909e-01
5.9533773809e+00 1.6973684525e-01
6.7532325235e+00 2.2172729016e-01
7.5554049053e+00 2.7550383264e-01
8.3601610713e+00 3.2929580819e-01
9.1677709952e+00 3.8150517496e-01
9.9785072812e+00 4.3118807091e-01
1.0792644643e+01 4.7754470293e-01
1.1610459588e+01 5.2032874273e-01
1.2432230253e+01 5.5930652628e-01
1.3258236337e+01 5.9464297674e-01
1.4088759099e+01 6.2639283843e-01
1.4924081400e+01 6.5489046651e-01
1.5764487770e+01 6.8029508269e-01
1.6610264487e+01 7.0297976995e-01
1.7461699667e+01 7.2312602951e-01
1.8319083357e+01 7.4108944728e-01
1.9182707631e+01 7.5702774456e-01
2.0052866693e+01 7.7123704077e-01
2.0929856971e+01 7.8382374798e-01
2.1813977219e+01 7.9502012409e-01
2.2705528623e+01 8.0489699582e-01
2.3604814899e+01 8.1364547366e-01
2.4512142398e+01 8.2131726607e-01
2.5427820210e+01 8.2807675944e-01
2.6352160271e+01 8.3397295771e-01
2.7285477466e+01 8.3916010010e-01
2.8228089740e+01 8.4369000976e-01
2.9180318202e+01 8.4770075499e-01
3.0142487241e+01 8.5122694406e-01
3.1114924627e+01 8.5436274811e-01
3.2097961633e+01 8.5710103699e-01
3.3091933139e+01 8.5949446219e-01
3.4097177753e+01 8.6152724565e-01
3.5114037921e+01 8.6325207762e-01
3.6142860047e+01 8.6465778679e-01
3.7183994610e+01 8.6578152061e-01
3.8237796283e+01 8.6660214868e-01
3.9304624055e+01 8.6715396926e-01
4.0384841351e+01 8.6743071677e-01
4.1478816159e+01 8.6747348621e-01
4.2586921152e+01 8.6727359745e-01
4.3709533817e+01 8.6685289519e-01
4.4847036585e+01 8.6619289286e-01
4.5999816957e+01 8.6532182679e-01
4.7168267640e+01 8.6424802581e-01
4.8352786679e+01 8.6302418193e-01
4.9553777591e+01 8.6167304132e-01
5.0771649508e+01 8.6023518155e-01
5.2006817308e+01 8.5870217567e-01
5.3259701767e+01 8.5707725668e-01
5.4530729690e+01 8.5533163512e-01
5.5820334067e+01 8.5346175201e-01
5.7128954215e+01 8.5144684676e-01
5.8457035929e+01 8.4929521349e-01
5.9805031633e+01 8.4699563210e-01
6.1173400536e+01 8.4456285591e-01
6.2562608788e+01 8.4200529078e-01
6.3973129635e+01 8.3936339130e-01
6.5405443587e+01 8.3665374826e-01
6.6860038576e+01 8.3388515840e-01
6.8337410125e+01 8.3103743541e-01
6.9838061516e+01 8.2811404684e-01
7.1362503960e+01 8.2510314930e-01
7.2911256775e+01 8.2199517691e-01
7.4484847559e+01 8.1875962608e-01
7.6083812373e+01 8.1538863007e-01
7.7708695921e+01 8.1188199442e-01
7.9360051734e+01 8.0829065767e-01
8.1038442365e+01 8.0467706658e-01
8.2744439576e+01 8.0110241411e-01
8.4478624530e+01 7.9757742048e-01
8.6241587997e+01 7.9408244009e-01
8.8033930547e+01 7.9055642549e-01
8.9856262762e+01 7.8691699240e-01
9.1709205436e+01 7.8307515973e-01
9.3593389795e+01 7.7901682073e-01
9.5509457704e+01 7.7480740272e-01
9.7458061892e+01 7.7054521324e-01
9.9439866172e+01 7.6625095191e-01
1.0145554566e+02 7.6191068857e-01
1.0350578703e+02 7.5751180917e-01
1.0559128871e+02 7.5307511609e-01
1.0771276115e+02 7.4864669472e-01
1.0987092704e+02 7.4429302332e-01
1.1206652160e+02 7.4002989950e-01
1.1430029277e+02 7.3584644270e-01
1.1657300151e+02 7.3174453559e-01
1.1888542205e+02 7.2770935420e-01
1.2123834212e+02 7.2363996087e-01
1.2363256328e+02 7.1939923388e-01
1.2606890115e+02 7.1487344020e-01
1.2854818569e+02 7.1001985196e-01
1.3107126148e+02 7.0481997822e-01
1.3363898805e+02 6.9928370512e-01
1.3625224012e+02 6.9339767060e-01
1.3891190791e+02 6.8716354526e-01
1.4161889747e+02 6.8065719564e-01
1.4437413097e+02 6.7397511263e-01
1.4717854699e+02 6.6718650205e-01
1.5003310091e+02 6.6036334378e-01
1.5293876514e+02 6.5352138192e-01
1.5589652954e+02 6.4662087260e-01
1.5890740169e+02 6.3956205234e-01
1.6197240728e+02 6.3229960273e-01
1.6509259044e+02 6.2491678516e-01
1.6826901409e+02 6.1750459143e-01
1.7150276031e+02 6.1001242039e-01
1.7479493070e+02 6.0234922368e-01
1.7814664679e+02 5.9448724752e-01
1.8155905037e+02 5.8643031454e-01
1.8503330390e+02 5.7816189264e-01
1.8857059093e+02 5.6981048352e-01
1.9217211647e+02 5.6155265899e-01
1.9583910742e+02 5.5332414354e-01
1.9957281298e+02 5.4496096669e-01
2.0337450507e+02 5.3632474493e-01
2.0724547877e+02 5.2744498527e-01
2.1118705278e+02 5.1846962981e-01
2.1520056983e+02 5.0947696030e-01
2.1928739716e+02 5.0044919484e-01
2.2344892701e+02 4.9140863618e-01
2.2768657703e+02 4.8242570919e-01
2.3200179082e+02 4.7347565088e-01
2.3639603841e+02 4.6430691625e-01
2.4087081674e+02 4.5467086862e-01
2.4542765019e+02 4.4444042863e-01
2.5006809109e+02 4.3365919789e-01
2.5479372026e+02 4.2242605563e-01
2.5960614754e+02 4.1089400505e-01
2.6450701231e+02 3.9934880267e-01
2.6949798412e+02 3.8791751301e-01
2.7458076319e+02 3.7642467513e-01
2.7975708102e+02 3.6472437928e-01
2.8502870098e+02 3.5273166282e-01
2.9039741890e+02 3.4063158118e-01
2.9586506368e+02 3.2859955938e-01
3.0143349794e+02 3.1640634044e-01
3.0710461862e+02 3.0373606888e-01
3.1288035765e+02 2.9088373871e-01
3.1876268259e+02 2.7816121727e-01
3.2475359732e+02 2.6533426307e-01
3.3085514269e+02 2.5234378468e-01
3.3706939727e+02 2.3937154336e-01
3.4339847799e+02 2.2658975027e-01
3.4984454091e+02 2.1381660427e-01
3.5640978188e+02 2.0111954668e-01
3.6309643733e+02 1.8843313492e-01
3.6990678487e+02 1.7554260851e-01
3.7684314396e+02 1.6278870805e-01
3.8390787633e+02 1.5025821812e-01
3.9110338615e+02 1.3788581073e-01
3.9843211953e+02 1.2556239967e-01
4.0589656306e+02 1.1330012915e-01
4.1349924044e+02 1.0131707987e-01
4.2124270614e+02 8.9743327646e-02
4.2912953435e+02 7.8686387156e-02
4.3716230063e+02 6.8466962741e-02
4.4534355328e+02 5.9101715741e-02
4.5367577013e+02 5.0519627866e-02
4.6216129653e+02 4.2661197147e-02
4.7080225980e+02 3.5491507153e-02
4.7960045663e+02 2.9135406071e-02
4.8855721127e+02 2.3699790648e-02
4.9767320634e+02 1.9114506383e-02
5.0694829158e+02 1.5248070474e-02
5.1638128212e+02 1.2037294707e-02
5.2596976245e+02 9.3910040191e-03
5.3570991718e+02 7.2357277155e-03
5.4559641198e+02 5.4918144921e-03
5.5562234697e+02 4.0721977520e-03
5.6577930043e+02 2.9726773066e-03
5.7605747209e+02 2.1412461786e-03
5.8644592435e+02 1.4900821083e-03
5.9693290738e+02 1.0057781221e-03
6.0750624294e+02 6.9349919562e-04
6.1815373393e+02 4.8419504113e-04
6.2886356302e+02 3.3605094590e-04
6.3962464611e+02 2.4433915852e-04
6.5042691296e+02 1.9603971553e-04
6.6126149787e+02 1.5979257988e-04
6.7212083508e+02 1.2208333127e-04
6.8299866488e+02 9.1834649271e-05
6.9388996500e+02 7.1437777232e-05
7.0479082754e+02 5.9295192795e-05
7.1569830307e+02 5.2842028784e-05
7.2661023225e+02 5.0432567749e-05
7.3752508151e+02 4.7869558053e-05
7.4844179417e+02 4.2682523291e-05
7.5935966386e+02 3.8298371900e-05
7.7027823245e+02 3.6162346170e-05
7.8119721165e+02 3.4976428114e-05
7.9211642543e+02 3.3928324675e-05
8.0303576952e+02 3.2944880766e-05
8.1395518398e+02 3.2094727504e-05
8.2487463536e+02 3.1332965986e-05
8.3579410559e+02 3.0628180455e-05
8.4671358515e+02 2.9921117988e-05
8.5763306920e+02 2.9193428655e-05
8.6855255537e+02 2.8400655308e-05
8.7947204248e+02 2.7543621071e-05
8.9039153002e+02 2.6614028441e-05
9.0131101774e+02 2.5639826261e-05
9.1223050554e+02 2.4633879972e-05
9.2314999336e+02 2.3633075377e-05
9.3406948120e+02 2.2651068505e-05
9.4498896904e+02 2.1721537133e-05
9.5590845688e+02 2.0844450040e-05
9.6682794473e+02 2.0038846692e-05
9.7774743257e+02 1.9291521400e-05
9.8866692042e+02 1.8614780384e-05
9.9958640826e+02 1.7995476932e-05
1.0105058961e+03 1.7443384242e-05
1.0214253840e+03 1.6944758817e-05
1.0323448718e+03 1.6504496975e-05
1.0432643596e+03 1.6108248926e-05
1.0541838475e+03 1.5754346842e-05
1.0651033353e+03 1.5426350059e-05
1.0760228232e+03 1.5118236730e-05
1.0869423110e+03 1.4819477964e-05
1.0978617989e+03 1.4528665289e-05
1.1087812867e+03 1.4241333161e-05
1.1197007746e+03 1.3952652155e-05
1.1306202624e+03 1.3657113265e-05
1.1415397502e+03 1.3349791659e-05
1.1524592381e+03 1.3037105752e-05
1.1633787259e+03 1.2722179788e-05
1.1742982138e+03 1.2418134679e-05
1.1852177016e+03 1.2122356242e-05
1.1961371895e+03 1.1842047193e-05
1.2070566773e+03 1.1567471757e-05
1.2179761652e+03 1.1302786079e-05
1.2288956530e+03 1.1038769928e-05
1.2398151408e+03 1.0778576664e-05
1.2507346287e+03 1.0514175348e-05
1.2616541165e+03 1.0245566394e-05
1.2725736044e+03 9.9683911903e-06
1.2834930922e+03 9.6829409393e-06
1.2944125801e+03 9.3913036318e-06
1.3053320679e+03 9.0930349803e-06
1.3162515558e+03 8.7950498341e-06
1.3271710436e+03 8.4951893652e-06
1.3380905314e+03 8.2044070961e-06
1.3490100193e+03 7.9188967590e-06
1.3599295071e+03 7.6515166783e-06
1.3708489950e+03 7.3952720610e-06
1.3817684828e+03 7.1628982990e-06
1.3926879707e+03 6.9461275958e-06
1.4036074585e+03 6.7588263323e-06
1.4145269464e+03 6.5915783358e-06
1.4254464342e+03 6.4546714781e-06
1.4363659220e+03 6.3316973620e-06
1.4472854099e+03 6.2257014047e-06
1.4582048977e+03 6.1169222091e-06
1.4691243856e+03 6.0118762972e-06
1.4800438734e+03 5.8983784870e-06
1.4909633613e+03 5.7893744195e-06
1.5018828491e+03 5.6735743972e-06
1.5128023370e+03 5.5600140304e-06
1.5237218248e+03 5.4336924222e-06
1.5346413126e+03 5.3026891617e-06
1.5455608005e+03 5.1560132257e-06
1.5564802883e+03 5.0062813787e-06
1.5673997762e+03 4.8478235319e-06
1.5783192640e+03 4.6937463114e-06
1.5892387519e+03 4.5368103868e-06
1.6001582397e+03 4.3843490162e-06
1.6110777276e+03 4.2259260618e-06
1.6219972154e+03 4.0679047050e-06
1.6329167032e+03 3.9022380027e-06
1.6438361911e+03 3.7375103368e-06
1.6547556789e+03 3.5648622498e-06
1.6656751668e+03 3.3910303379e-06
1.6765946546e+03 3.2029966047e-06
1.6875141425e+03 3.0074164983e-06
1.6984336303e+03 2.7904710383e-06
1.7093531182e+03 2.5631658454e-06
1.7202726060e+03 2.3134327920e-06
1.7311920938e+03 2.0602962852e-06
1.7421115817e+03 1.7948947508e-06
1.7530310695e+03 1.5433119755e-06
1.7639505574e+03 1.2920501186e-06
1.7748700452e+03 1.0646239427e-06
1.7857895331e+03 8.3438036760e-07
1.7967090209e+03 6.2038515531e-07
1.8076285088e+03 3.8755324043e-07
1.8185479966e+03 1.6067023959e-07
1.8294674844e+03 -9.2819717214e-08
1.8403869723e+03 -3.3717897396e-07
1.8513064601e+03 -6.0456610970e-07
1.8622259480e+03 -8.5586500171e-07
1.8731454358e+03 -1.1268754948e-06
1.8840649237e+03 -1.3771355492e-06
1.8949844115e+03 -1.6435341333e-06
1.9059038994e+03 -1.8869741559e-06
1.9168233872e+03 -2.1458138315e-06
1.9277428750e+03 -2.3870060413e-06
1.9386623629e+03 -2.6478623353e-06
1.9495818507e+03 -2.9005501205e-06
1.9605013386e+03 -3.1737724409e-06
1.9714208264e+03 -3.4409465108e-06
1.9823403143e+03 -3.7167529223e-06
1.9932598021e+03 -3.9795875873e-06
2.0041792900e+03 -4.2377613431e-06
2.0150987778e+03 -4.4859439452e-06
2.0260182656e+03 -4.7296684059e-06
2.0369377535e+03 -4.9760265742e-06
2.0478572413e+03 -5.2189900641e-06
2.0587767292e+03 -5.4736133013e-06
2.0696962170e+03 -5.7218242047e-06
2.0806157049e+03 -5.9893713287e-06
2.0915351927e+03 -6.2450113728e-06
2.1024546806e+03 -6.5223739037e-06
2.1133741684e+03 -6.7740127091e-06
2.1242936562e+03 -7.0435541941e-06
2.1352131441e+03 -7.2751943109e-06
2.1461326319e+03 -7.5287878048e-06
2.1570521198e+03 -7.7426058080e-06
2.1679716076e+03 -7.9837726232e-06
2.1788910955e+03 -8.1790053223e-06
2.1898105833e+03 -8.3975460530e-06
2.2007300712e+03 -8.5628233676e-06
2.2116495590e+03 -8.7493929817e-06
2.2225690468e+03 -8.8844037419e-06
2.2334885347e+03 -9.0428689467e-06
2.2444080225e+03 -9.1575396511e-06
2.2553275104e+03 -9.2980817230e-06
2.2662469982e+03 -9.4065338905e-06
2.2771664861e+03 -9.5406346430e-06
2.2880859739e+03 -9.6546950229e-06
2.2990054618e+03 -9.7870031464e-06
2.3099249496e+03 -9.9098752087e-06
2.3208444374e+03 -1.0037335814e-05
2.3317639253e+03 -1.0166960895e-05
2.3426834131e+03 -1.0283794567e-05
2.3536029010e+03 -1.0415719888e-05
2.3645223888e+03 -1.0515663724e-05
2.3754418767e+03 -1.0645316945e-05
2.3863613645e+03 -1.0726434222e-05
2.3972808524e+03 -1.0857006422e-05
2.4082003402e+03 -1.0932942028e-05
2.4191198280e+03 -1.1085809936e-05
2.4300393159e+03 -1.1186598972e-05
2.4409588037e+03 -1.1384249989e-05
2.4518782916e+03 -1.1520751086e-05
2.4627977794e+03 -1.1747423018e-05
2.4737172673e+03 -1.1889611954e-05
2.4846367551e+03 -1.2104388764e-05
2.4955562430e+03 -1.2222460243e-05
2.5064757308e+03 -1.2404092812e-05
2.5173952187e+03 -1.2494109887e-05
2.5283147065e+03 -1.2643266927e-05
2.5392341943e+03 -1.2719573137e-05
2.5501536822e+03 -1.2852349301e-05
2.5610731700e+03 -1.2941359556e-05
2.5719926579e+03 -1.3076327618e-05
2.5829121457e+03 -1.3197567567e-05
2.5938316336e+03 -1.3339856827e-05
2.6047511214e+03 -1.3502739941e-05
2.6156706093e+03 -1.3647769472e-05
2.6265900971e+03 -1.3853292751e-05
2.6375095849e+03 -1.3980587911e-05
2.6484290728e+03 -1.4214956121e-05
2.6593485606e+03 -1.4291802576e-05
2.6702680485e+03 -1.4541783197e-05
2.6811875363e+03 -1.4545915148e-05
2.6921070242e+03 -1.4815244015e-05
2.7030265120e+03 -1.4746740571e-05
2.7139459999e+03 -1.5053362091e-05
2.7248654877e+03 -1.4936475268e-05
2.7357849755e+03 -1.5301156402e-05
2.7467044634e+03 -1.5185993005e-05
2.7576239512e+03 -1.5614109369e-05
2.7685434391e+03 -1.5565974119e-05
2.7794629269e+03 -1.6023570115e-05
2.7903824148e+03 -1.6100015755e-05
2.8013019026e+03 -1.6521577810e-05
2.8122213905e+03 -1.6730495465e-05
