# Rotated Reynolds stress Morkovin's scaling
# Columns: y_plus    rho u''w''rotated/tau_wall
3.9832992606e-01 2.4734394841e-05
1.1887924427e+00 2.7810222257e-04
1.9799514194e+00 7.7756941294e-04
2.7719943680e+00 1.4245826886e-03
3.5651283791e+00 2.0995431162e-03
4.3595770683e+00 2.6415327659e-03
5.1555775073e+00 2.8468859647e-03
5.9533773809e+00 2.5117891751e-03
6.7532325235e+00 1.5030697973e-03
7.5554049053e+00 -2.3308295798e-04
8.3601610713e+00 -2.6852736634e-03
9.1677709952e+00 -5.7980728136e-03
9.9785072812e+00 -9.4633219073e-03
1.0792644643e+01 -1.3561619869e-02
1.1610459588e+01 -1.7982869375e-02
1.2432230253e+01 -2.2639146481e-02
1.3258236337e+01 -2.7417156474e-02
1.4088759099e+01 -3.2174506134e-02
1.4924081400e+01 -3.6745566847e-02
1.5764487770e+01 -4.0996660883e-02
1.6610264487e+01 -4.4837676762e-02
1.7461699667e+01 -4.8242086808e-02
1.8319083357e+01 -5.1223897794e-02
1.9182707631e+01 -5.3832515017e-02
2.0052866693e+01 -5.6115403632e-02
2.0929856971e+01 -5.8110240008e-02
2.1813977219e+01 -5.9824421826e-02
2.2705528623e+01 -6.1253882331e-02
2.3604814899e+01 -6.2404396179e-02
2.4512142398e+01 -6.3342915248e-02
2.5427820210e+01 -6.4201984114e-02
2.6352160271e+01 -6.5146622744e-02
2.7285477466e+01 -6.6295029718e-02
2.8228089740e+01 -6.7674389965e-02
2.9180318202e+01 -6.9215306047e-02
3.0142487241e+01 -7.0798662018e-02
3.1114924627e+01 -7.2300553512e-02
3.2097961633e+01 -7.3632193630e-02
3.3091933139e+01 -7.4742781351e-02
3.4097177753e+01 -7.5618624661e-02
3.5114037921e+01 -7.6279759885e-02
3.6142860047e+01 -7.6789839179e-02
3.7183994610e+01 -7.7240191822e-02
3.8237796283e+01 -7.7719839322e-02
3.9304624055e+01 -7.8277242813e-02
4.0384841351e+01 -7.8906648436e-02
4.1478816159e+01 -7.9552305478e-02
4.2586921152e+01 -8.0145981196e-02
4.3709533817e+01 -8.0646367566e-02
4.4847036585e+01 -8.1053200689e-02
4.5999816957e+01 -8.1387204410e-02
4.7168267640e+01 -8.1683665859e-02
4.8352786679e+01 -8.1981994315e-02
4.9553777591e+01 -8.2297796659e-02
5.0771649508e+01 -8.2608799719e-02
5.2006817308e+01 -8.2887670065e-02
5.3259701767e+01 -8.3127971497e-02
5.4530729690e+01 -8.3334014105e-02
5.5820334067e+01 -8.3492959631e-02
5.7128954215e+01 -8.3568338876e-02
5.8457035929e+01 -8.3515869330e-02
5.9805031633e+01 -8.3321589123e-02
6.1173400536e+01 -8.3036961397e-02
6.2562608788e+01 -8.2763392019e-02
6.3973129635e+01 -8.2588190778e-02
6.5405443587e+01 -8.2521825838e-02
6.6860038576e+01 -8.2481571858e-02
6.8337410125e+01 -8.2349651727e-02
6.9838061516e+01 -8.2045274419e-02
7.1362503960e+01 -8.1576153418e-02
7.2911256775e+01 -8.1034855149e-02
7.4484847559e+01 -8.0518557345e-02
7.6083812373e+01 -8.0046344052e-02
7.7708695921e+01 -7.9583281146e-02
7.9360051734e+01 -7.9139739243e-02
8.1038442365e+01 -7.8797320274e-02
8.2744439576e+01 -7.8633590128e-02
8.4478624530e+01 -7.8647329601e-02
8.6241587997e+01 -7.8779392315e-02
8.8033930547e+01 -7.8988300469e-02
8.9856262762e+01 -7.9295342446e-02
9.1709205436e+01 -7.9754700150e-02
9.3593389795e+01 -8.0341763005e-02
9.5509457704e+01 -8.0943575893e-02
9.7458061892e+01 -8.1474637156e-02
9.9439866172e+01 -8.1892097789e-02
1.0145554566e+02 -8.2166306864e-02
1.0350578703e+02 -8.2373647923e-02
1.0559128871e+02 -8.2673731791e-02
1.0771276115e+02 -8.3115633033e-02
1.0987092704e+02 -8.3638873641e-02
1.1206652160e+02 -8.4214608140e-02
1.1430029277e+02 -8.4864907929e-02
1.1657300151e+02 -8.5662360811e-02
1.1888542205e+02 -8.6681351288e-02
1.2123834212e+02 -8.7863219464e-02
1.2363256328e+02 -8.9049257462e-02
1.2606890115e+02 -9.0185582440e-02
1.2854818569e+02 -9.1266162989e-02
1.3107126148e+02 -9.2264444365e-02
1.3363898805e+02 -9.3148907824e-02
1.3625224012e+02 -9.3915171763e-02
1.3891190791e+02 -9.4501146976e-02
1.4161889747e+02 -9.4766143335e-02
1.4437413097e+02 -9.4681181492e-02
1.4717854699e+02 -9.4453348940e-02
1.5003310091e+02 -9.4178670857e-02
1.5293876514e+02 -9.3725549791e-02
1.5589652954e+02 -9.3020005617e-02
1.5890740169e+02 -9.2030102482e-02
1.6197240728e+02 -9.0952258628e-02
1.6509259044e+02 -9.0090829505e-02
1.6826901409e+02 -8.9545617102e-02
1.7150276031e+02 -8.9332011264e-02
1.7479493070e+02 -8.9484464753e-02
1.7814664679e+02 -8.9999422510e-02
1.8155905037e+02 -9.0895494536e-02
1.8503330390e+02 -9.1779475063e-02
1.8857059093e+02 -9.2150002871e-02
1.9217211647e+02 -9.1915126429e-02
1.9583910742e+02 -9.1163723977e-02
1.9957281298e+02 -9.0171031126e-02
2.0337450507e+02 -8.9284251911e-02
2.0724547877e+02 -8.8670224943e-02
2.1118705278e+02 -8.8233980076e-02
2.1520056983e+02 -8.7816902669e-02
2.1928739716e+02 -8.7393337477e-02
2.2344892701e+02 -8.6712976742e-02
2.2768657703e+02 -8.5840785147e-02
2.3200179082e+02 -8.5246597851e-02
2.3639603841e+02 -8.5425383256e-02
2.4087081674e+02 -8.6199084752e-02
2.4542765019e+02 -8.6703203669e-02
2.5006809109e+02 -8.6738395830e-02
2.5479372026e+02 -8.6722549962e-02
2.5960614754e+02 -8.6913619464e-02
2.6450701231e+02 -8.7590546418e-02
2.6949798412e+02 -8.8507847238e-02
2.7458076319e+02 -8.9017580409e-02
2.7975708102e+02 -8.9143862989e-02
2.8502870098e+02 -8.8945801558e-02
2.9039741890e+02 -8.8679259136e-02
2.9586506368e+02 -8.8457271730e-02
3.0143349794e+02 -8.7769879630e-02
3.0710461862e+02 -8.6234391127e-02
3.1288035765e+02 -8.4308345965e-02
3.1876268259e+02 -8.2077008355e-02
3.2475359732e+02 -7.9423887254e-02
3.3085514269e+02 -7.6931271462e-02
3.3706939727e+02 -7.5128398923e-02
3.4339847799e+02 -7.3557822243e-02
3.4984454091e+02 -7.0961398452e-02
3.5640978188e+02 -6.7260174679e-02
3.6309643733e+02 -6.3268710569e-02
3.6990678487e+02 -5.9107229625e-02
3.7684314396e+02 -5.5065663041e-02
3.8390787633e+02 -5.1215836116e-02
3.9110338615e+02 -4.7156063601e-02
3.9843211953e+02 -4.3314278882e-02
4.0589656306e+02 -3.9435941713e-02
4.1349924044e+02 -3.5508713847e-02
4.2124270614e+02 -3.1394737479e-02
4.2912953435e+02 -2.7041218671e-02
4.3716230063e+02 -2.3186799526e-02
4.4534355328e+02 -2.0010019811e-02
4.5367577013e+02 -1.7195359636e-02
4.6216129653e+02 -1.4566393719e-02
4.7080225980e+02 -1.2037378055e-02
4.7960045663e+02 -9.6664557324e-03
4.8855721127e+02 -7.6069086643e-03
4.9767320634e+02 -5.9787890686e-03
5.0694829158e+02 -4.8913633487e-03
5.1638128212e+02 -4.0865660368e-03
5.2596976245e+02 -3.3641515015e-03
5.3570991718e+02 -2.7349675558e-03
5.4559641198e+02 -2.3138419308e-03
5.5562234697e+02 -1.9967688873e-03
5.6577930043e+02 -1.7459362264e-03
5.7605747209e+02 -1.5733869022e-03
5.8644592435e+02 -1.4278110299e-03
5.9693290738e+02 -1.2726901779e-03
6.0750624294e+02 -1.1693646705e-03
6.1815373393e+02 -1.1032070010e-03
6.2886356302e+02 -1.0180450033e-03
6.3962464611e+02 -9.0820489098e-04
6.5042691296e+02 -8.0053113245e-04
6.6126149787e+02 -7.2098118396e-04
6.7212083508e+02 -6.6201403124e-04
6.8299866488e+02 -6.1090367904e-04
6.9388996500e+02 -5.6602310445e-04
7.0479082754e+02 -5.2239674407e-04
7.1569830307e+02 -4.8291462716e-04
7.2661023225e+02 -4.4914799039e-04
7.3752508151e+02 -4.1648528315e-04
7.4844179417e+02 -3.8305150610e-04
7.5935966386e+02 -3.5526725027e-04
7.7027823245e+02 -3.3204040999e-04
7.8119721165e+02 -3.1114815775e-04
7.9211642543e+02 -2.9216798214e-04
8.0303576952e+02 -2.7477993762e-04
8.1395518398e+02 -2.5888862406e-04
8.2487463536e+02 -2.4431635609e-04
8.3579410559e+02 -2.3096348179e-04
8.4671358515e+02 -2.1867665309e-04
8.5763306920e+02 -2.0737960052e-04
8.6855255537e+02 -1.9693954284e-04
8.7947204248e+02 -1.8728882242e-04
8.9039153002e+02 -1.7831127602e-04
9.0131101774e+02 -1.6995418203e-04
9.1223050554e+02 -1.6212845246e-04
9.2314999336e+02 -1.5480591670e-04
9.3406948120e+02 -1.4792606426e-04
9.4498896904e+02 -1.4147807125e-04
9.5590845688e+02 -1.3541726976e-04
9.6682794473e+02 -1.2973721232e-04
9.7774743257e+02 -1.2439869298e-04
9.8866692042e+02 -1.1939568423e-04
9.9958640826e+02 -1.1469323778e-04
1.0105058961e+03 -1.1028674721e-04
1.0214253840e+03 -1.0614674069e-04
1.0323448718e+03 -1.0227125782e-04
1.0432643596e+03 -9.8636054257e-05
1.0541838475e+03 -9.5237241646e-05
1.0651033353e+03 -9.2046425988e-05
1.0760228232e+03 -8.9052160994e-05
1.0869423110e+03 -8.6221602819e-05
1.0978617989e+03 -8.3545278615e-05
1.1087812867e+03 -8.0996268420e-05
1.1197007746e+03 -7.8575891746e-05
1.1306202624e+03 -7.6265352114e-05
1.1415397502e+03 -7.4073283487e-05
1.1524592381e+03 -7.1981893483e-05
1.1633787259e+03 -6.9999157050e-05
1.1742982138e+03 -6.8104036506e-05
1.1852177016e+03 -6.6305052409e-05
1.1961371895e+03 -6.4583392711e-05
1.2070566773e+03 -6.2952347187e-05
1.2179761652e+03 -6.1395304468e-05
1.2288956530e+03 -5.9925990320e-05
1.2398151408e+03 -5.8525172475e-05
1.2507346287e+03 -5.7202464975e-05
1.2616541165e+03 -5.5934413381e-05
1.2725736044e+03 -5.4726520384e-05
1.2834930922e+03 -5.3554256287e-05
1.2944125801e+03 -5.2422183123e-05
1.3053320679e+03 -5.1308826014e-05
1.3162515558e+03 -5.0221226713e-05
1.3271710436e+03 -4.9144255362e-05
1.3380905314e+03 -4.8089508840e-05
1.3490100193e+03 -4.7050092531e-05
1.3599295071e+03 -4.6044886554e-05
1.3708489950e+03 -4.5075804900e-05
1.3817684828e+03 -4.4164978903e-05
1.3926879707e+03 -4.3311869092e-05
1.4036074585e+03 -4.2529247052e-05
1.4145269464e+03 -4.1805808718e-05
1.4254464342e+03 -4.1145049673e-05
1.4363659220e+03 -4.0530959416e-05
1.4472854099e+03 -3.9966086707e-05
1.4582048977e+03 -3.9436088301e-05
1.4691243856e+03 -3.8946891495e-05
1.4800438734e+03 -3.8486093439e-05
1.4909633613e+03 -3.8063391785e-05
1.5018828491e+03 -3.7667845041e-05
1.5128023370e+03 -3.7314283179e-05
1.5237218248e+03 -3.6992857261e-05
1.5346413126e+03 -3.6721259340e-05
1.5455608005e+03 -3.6486089979e-05
1.5564802883e+03 -3.6302402531e-05
1.5673997762e+03 -3.6149332513e-05
1.5783192640e+03 -3.6037261060e-05
1.5892387519e+03 -3.5940061842e-05
1.6001582397e+03 -3.5867506437e-05
1.6110777276e+03 -3.5794373826e-05
1.6219972154e+03 -3.5732385435e-05
1.6329167032e+03 -3.5657796360e-05
1.6438361911e+03 -3.5581642569e-05
1.6547556789e+03 -3.5482223293e-05
1.6656751668e+03 -3.5371036925e-05
1.6765946546e+03 -3.5231775713e-05
1.6875141425e+03 -3.5076723517e-05
1.6984336303e+03 -3.4894893650e-05
1.7093531182e+03 -3.4697138918e-05
1.7202726060e+03 -3.4476806211e-05
1.7311920938e+03 -3.4243199867e-05
1.7421115817e+03 -3.3995584733e-05
1.7530310695e+03 -3.3743699760e-05
1.7639505574e+03 -3.3492095350e-05
1.7748700452e+03 -3.3247425045e-05
1.7857895331e+03 -3.3012293694e-05
1.7967090209e+03 -3.2784862206e-05
1.8076285088e+03 -3.2563436759e-05
1.8185479966e+03 -3.2341769391e-05
1.8294674844e+03 -3.2119429784e-05
1.8403869723e+03 -3.1892369425e-05
1.8513064601e+03 -3.1664088412e-05
1.8622259480e+03 -3.1434302986e-05
1.8731454358e+03 -3.1207849356e-05
1.8840649237e+03 -3.0985653771e-05
1.8949844115e+03 -3.0769571360e-05
1.9059038994e+03 -3.0560833252e-05
1.9168233872e+03 -3.0359329867e-05
1.9277428750e+03 -3.0170318809e-05
1.9386623629e+03 -2.9994399334e-05
1.9495818507e+03 -2.9840330655e-05
1.9605013386e+03 -2.9705727702e-05
1.9714208264e+03 -2.9596913436e-05
1.9823403143e+03 -2.9504360056e-05
1.9932598021e+03 -2.9430471527e-05
2.0041792900e+03 -2.9360748899e-05
2.0150987778e+03 -2.9297928084e-05
2.0260182656e+03 -2.9227254590e-05
2.0369377535e+03 -2.9156452701e-05
2.0478572413e+03 -2.9072224290e-05
2.0587767292e+03 -2.8987113331e-05
2.0696962170e+03 -2.8885442470e-05
2.0806157049e+03 -2.8782442205e-05
2.0915351927e+03 -2.8658272926e-05
2.1024546806e+03 -2.8533137808e-05
2.1133741684e+03 -2.8384410089e-05
2.1242936562e+03 -2.8239521361e-05
2.1352131441e+03 -2.8072803054e-05
2.1461326319e+03 -2.7917844773e-05
2.1570521198e+03 -2.7743927819e-05
2.1679716076e+03 -2.7588162546e-05
2.1788910955e+03 -2.7414197732e-05
2.1898105833e+03 -2.7261441262e-05
2.2007300712e+03 -2.7090710635e-05
2.2116495590e+03 -2.6944561873e-05
2.2225690468e+03 -2.6785499791e-05
2.2334885347e+03 -2.6657966624e-05
2.2444080225e+03 -2.6527666560e-05
2.2553275104e+03 -2.6435318346e-05
2.2662469982e+03 -2.6351285907e-05
2.2771664861e+03 -2.6307995199e-05
2.2880859739e+03 -2.6286238710e-05
2.2990054618e+03 -2.6306638457e-05
2.3099249496e+03 -2.6365558525e-05
2.3208444374e+03 -2.6464010594e-05
2.3317639253e+03 -2.6615763295e-05
2.3426834131e+03 -2.6794907811e-05
2.3536029010e+03 -2.7037826899e-05
2.3645223888e+03 -2.7290407477e-05
2.3754418767e+03 -2.7617312408e-05
2.3863613645e+03 -2.7932900422e-05
2.3972808524e+03 -2.8328147470e-05
2.4082003402e+03 -2.8678019816e-05
2.4191198280e+03 -2.9095406251e-05
2.4300393159e+03 -2.9413342985e-05
2.4409588037e+03 -2.9769632776e-05
2.4518782916e+03 -2.9964390851e-05
2.4627977794e+03 -3.0169397490e-05
2.4737172673e+03 -3.0164446054e-05
2.4846367551e+03 -3.0158376373e-05
2.4955562430e+03 -2.9917813936e-05
2.5064757308e+03 -2.9683096328e-05
2.5173952187e+03 -2.9213983229e-05
2.5283147065e+03 -2.8773282388e-05
2.5392341943e+03 -2.8121715054e-05
2.5501536822e+03 -2.7530095753e-05
2.5610731700e+03 -2.6768104246e-05
2.5719926579e+03 -2.6096517289e-05
2.5829121457e+03 -2.5307960055e-05
2.5938316336e+03 -2.4637274493e-05
2.6047511214e+03 -2.3924005794e-05
2.6156706093e+03 -2.3361686118e-05
2.6265900971e+03 -2.2865282015e-05
2.6375095849e+03 -2.2563725481e-05
2.6484290728e+03 -2.2472192024e-05
2.6593485606e+03 -2.2623315862e-05
2.6702680485e+03 -2.3151811015e-05
2.6811875363e+03 -2.3961957901e-05
2.6921070242e+03 -2.5313359619e-05
2.7030265120e+03 -2.6953401945e-05
2.7139459999e+03 -2.9238336180e-05
2.7248654877e+03 -3.1741655803e-05
2.7357849755e+03 -3.4840788604e-05
2.7467044634e+03 -3.7954498941e-05
2.7576239512e+03 -4.1372281457e-05
2.7685434391e+03 -4.4456604561e-05
2.7794629269e+03 -4.7314434407e-05
2.7903824148e+03 -4.9458386170e-05
2.8013019026e+03 -5.0799769246e-05
2.8122213905e+03 -5.1408150062e-05
