# Rotated Reynolds stress Morkovin's scaling
# Columns: y_plus    rho u''u''rotated/tau_wall
3.9832992606e-01 2.5115010208e-02
1.1887924427e+00 2.2172082074e-01
1.9799514194e+00 6.0600686615e-01
2.7719943680e+00 1.1604050837e+00
3.5651283791e+00 1.8506466270e+00
4.3595770683e+00 2.6276377334e+00
5.1555775073e+00 3.4366173993e+00
5.9533773809e+00 4.2269318968e+00
6.7532325235e+00 4.9590527055e+00
7.5554049053e+00 5.6068326101e+00
8.3601610713e+00 6.1570832202e+00
9.1677709952e+00 6.6067465747e+00
9.9785072812e+00 6.9599690958e+00
1.0792644643e+01 7.2249215990e+00
1.1610459588e+01 7.4117964998e+00
1.2432230253e+01 7.5312320783e+00
1.3258236337e+01 7.5936596004e+00
1.4088759099e+01 7.6087171145e+00
1.4924081400e+01 7.5850727551e+00
1.5764487770e+01 7.5302195453e+00
1.6610264487e+01 7.4505435630e+00
1.7461699667e+01 7.3513711983e+00
1.8319083357e+01 7.2371603224e+00
1.9182707631e+01 7.1116430613e+00
2.0052866693e+01 6.9779967037e+00
2.0929856971e+01 6.8389066797e+00
2.1813977219e+01 6.6966165173e+00
2.2705528623e+01 6.5529392378e+00
2.3604814899e+01 6.4093299182e+00
2.4512142398e+01 6.2669198092e+00
2.5427820210e+01 6.1265616060e+00
2.6352160271e+01 5.9888255861e+00
2.7285477466e+01 5.8540700457e+00
2.8228089740e+01 5.7224906475e+00
2.9180318202e+01 5.5942331969e+00
3.0142487241e+01 5.4694117180e+00
3.1114924627e+01 5.3481549397e+00
3.2097961633e+01 5.2305639293e+00
3.3091933139e+01 5.1167611524e+00
3.4097177753e+01 5.0068572257e+00
3.5114037921e+01 4.9009924819e+00
3.6142860047e+01 4.7992711244e+00
3.7183994610e+01 4.7017788870e+00
3.8237796283e+01 4.6084874054e+00
3.9304624055e+01 4.5192755089e+00
4.0384841351e+01 4.4339002353e+00
4.1478816159e+01 4.3521289232e+00
4.2586921152e+01 4.2737651396e+00
4.3709533817e+01 4.1987190600e+00
4.4847036585e+01 4.1268963679e+00
4.5999816957e+01 4.0581796634e+00
4.7168267640e+01 3.9923352578e+00
4.8352786679e+01 3.9290976867e+00
4.9553777591e+01 3.8681948534e+00
5.0771649508e+01 3.8094596548e+00
5.2006817308e+01 3.7527606782e+00
5.3259701767e+01 3.6980309551e+00
5.4530729690e+01 3.6452209537e+00
5.5820334067e+01 3.5943577804e+00
5.7128954215e+01 3.5454649552e+00
5.8457035929e+01 3.4985707958e+00
5.9805031633e+01 3.4536245077e+00
6.1173400536e+01 3.4105840934e+00
6.2562608788e+01 3.3694140348e+00
6.3973129635e+01 3.3300680578e+00
6.5405443587e+01 3.2923446147e+00
6.6860038576e+01 3.2559822610e+00
6.8337410125e+01 3.2207365738e+00
6.9838061516e+01 3.1864626443e+00
7.1362503960e+01 3.1530432557e+00
7.2911256775e+01 3.1204554681e+00
7.4484847559e+01 3.0886762663e+00
7.6083812373e+01 3.0576419909e+00
7.7708695921e+01 3.0272786833e+00
7.9360051734e+01 2.9976741932e+00
8.1038442365e+01 2.9689002350e+00
8.2744439576e+01 2.9408327225e+00
8.4478624530e+01 2.9131989976e+00
8.6241587997e+01 2.8858378731e+00
8.8033930547e+01 2.8587276683e+00
8.9856262762e+01 2.8319355782e+00
9.1709205436e+01 2.8054362138e+00
9.3593389795e+01 2.7791224106e+00
9.5509457704e+01 2.7529574164e+00
9.7458061892e+01 2.7271221121e+00
9.9439866172e+01 2.7017746304e+00
1.0145554566e+02 2.6769569338e+00
1.0350578703e+02 2.6526055908e+00
1.0559128871e+02 2.6286318796e+00
1.0771276115e+02 2.6049171750e+00
1.0987092704e+02 2.5813803419e+00
1.1206652160e+02 2.5579456483e+00
1.1430029277e+02 2.5345377969e+00
1.1657300151e+02 2.5112098973e+00
1.1888542205e+02 2.4881369765e+00
1.2123834212e+02 2.4652948687e+00
1.2363256328e+02 2.4423709919e+00
1.2606890115e+02 2.4190356101e+00
1.2854818569e+02 2.3951925363e+00
1.3107126148e+02 2.3707100927e+00
1.3363898805e+02 2.3455376380e+00
1.3625224012e+02 2.3199771314e+00
1.3891190791e+02 2.2944882162e+00
1.4161889747e+02 2.2693170202e+00
1.4437413097e+02 2.2444394268e+00
1.4717854699e+02 2.2198216379e+00
1.5003310091e+02 2.1954365642e+00
1.5293876514e+02 2.1709356748e+00
1.5589652954e+02 2.1461153909e+00
1.5890740169e+02 2.1211353840e+00
1.6197240728e+02 2.0959712660e+00
1.6509259044e+02 2.0701954859e+00
1.6826901409e+02 2.0436671376e+00
1.7150276031e+02 2.0166182218e+00
1.7479493070e+02 1.9892447818e+00
1.7814664679e+02 1.9615395380e+00
1.8155905037e+02 1.9338335947e+00
1.8503330390e+02 1.9062998834e+00
1.8857059093e+02 1.8785986264e+00
1.9217211647e+02 1.8500488620e+00
1.9583910742e+02 1.8205918190e+00
1.9957281298e+02 1.7907950615e+00
2.0337450507e+02 1.7608273570e+00
2.0724547877e+02 1.7304899331e+00
2.1118705278e+02 1.7001400241e+00
2.1520056983e+02 1.6695433982e+00
2.1928739716e+02 1.6376692895e+00
2.2344892701e+02 1.6040918850e+00
2.2768657703e+02 1.5695609303e+00
2.3200179082e+02 1.5348156921e+00
2.3639603841e+02 1.4999700276e+00
2.4087081674e+02 1.4647310019e+00
2.4542765019e+02 1.4291208712e+00
2.5006809109e+02 1.3937124090e+00
2.5479372026e+02 1.3592699734e+00
2.5960614754e+02 1.3254940828e+00
2.6450701231e+02 1.2914810514e+00
2.6949798412e+02 1.2568075405e+00
2.7458076319e+02 1.2212782047e+00
2.7975708102e+02 1.1848507013e+00
2.8502870098e+02 1.1479563535e+00
2.9039741890e+02 1.1109784799e+00
2.9586506368e+02 1.0744497599e+00
3.0143349794e+02 1.0373656614e+00
3.0710461862e+02 9.9934887612e-01
3.1288035765e+02 9.6136267032e-01
3.1876268259e+02 9.2370269818e-01
3.2475359732e+02 8.8559037650e-01
3.3085514269e+02 8.4615896943e-01
3.3706939727e+02 8.0510387771e-01
3.4339847799e+02 7.6360231292e-01
3.4984454091e+02 7.2207194247e-01
3.5640978188e+02 6.8067309007e-01
3.6309643733e+02 6.3889794281e-01
3.6990678487e+02 5.9667401237e-01
3.7684314396e+02 5.5434698324e-01
3.8390787633e+02 5.1227050872e-01
3.9110338615e+02 4.7067576280e-01
3.9843211953e+02 4.2918543245e-01
4.0589656306e+02 3.8756960511e-01
4.1349924044e+02 3.4696630251e-01
4.2124270614e+02 3.0812305339e-01
4.2912953435e+02 2.7099807284e-01
4.3716230063e+02 2.3584803433e-01
4.4534355328e+02 2.0321582362e-01
4.5367577013e+02 1.7328917169e-01
4.6216129653e+02 1.4627019314e-01
4.7080225980e+02 1.2230514924e-01
4.7960045663e+02 1.0177896464e-01
4.8855721127e+02 8.4143897484e-02
4.9767320634e+02 6.8565731565e-02
5.0694829158e+02 5.5122648649e-02
5.1638128212e+02 4.4109474333e-02
5.2596976245e+02 3.5510814707e-02
5.3570991718e+02 2.8853454609e-02
5.4559641198e+02 2.3523348106e-02
5.5562234697e+02 1.9162941647e-02
5.6577930043e+02 1.5785972308e-02
5.7605747209e+02 1.3128545274e-02
5.8644592435e+02 1.0956812875e-02
5.9693290738e+02 9.2514644638e-03
6.0750624294e+02 7.9167865028e-03
6.1815373393e+02 6.8511772981e-03
6.2886356302e+02 5.9565933381e-03
6.3962464611e+02 5.1962227926e-03
6.5042691296e+02 4.5567125335e-03
6.6126149787e+02 4.0059891775e-03
6.7212083508e+02 3.5303576923e-03
6.8299866488e+02 3.1306290551e-03
6.9388996500e+02 2.8106489710e-03
7.0479082754e+02 2.5452642268e-03
7.1569830307e+02 2.3110078408e-03
7.2661023225e+02 2.1069958029e-03
7.3752508151e+02 1.9231243478e-03
7.4844179417e+02 1.7573365926e-03
7.5935966386e+02 1.6156002079e-03
7.7027823245e+02 1.4923180037e-03
7.8119721165e+02 1.3823752924e-03
7.9211642543e+02 1.2836043564e-03
8.0303576952e+02 1.1944979310e-03
8.1395518398e+02 1.1141877475e-03
8.2487463536e+02 1.0415954053e-03
8.3579410559e+02 9.7589633522e-04
8.4671358515e+02 9.1623258301e-04
8.5763306920e+02 8.6199978314e-04
8.6855255537e+02 8.1253596589e-04
8.7947204248e+02 7.6737673588e-04
8.9039153002e+02 7.2599767606e-04
9.0131101774e+02 6.8803994947e-04
9.1223050554e+02 6.5309535963e-04
9.2314999336e+02 6.2089586544e-04
9.3406948120e+02 5.9112249379e-04
9.4498896904e+02 5.6357605768e-04
9.5590845688e+02 5.3800605545e-04
9.6682794473e+02 5.1427054927e-04
9.7774743257e+02 4.9217379549e-04
9.8866692042e+02 4.7162057051e-04
9.9958640826e+02 4.5245560529e-04
1.0105058961e+03 4.3461474402e-04
1.0214253840e+03 4.1796634016e-04
1.0323448718e+03 4.0246605187e-04
1.0432643596e+03 3.8799885556e-04
1.0541838475e+03 3.7452871326e-04
1.0651033353e+03 3.6194347939e-04
1.0760228232e+03 3.5020883613e-04
1.0869423110e+03 3.3922224751e-04
1.0978617989e+03 3.2896206398e-04
1.1087812867e+03 3.1934003465e-04
1.1197007746e+03 3.1034230650e-04
1.1306202624e+03 3.0188929673e-04
1.1415397502e+03 2.9397205715e-04
1.1524592381e+03 2.8651932430e-04
1.1633787259e+03 2.7952465325e-04
1.1742982138e+03 2.7292056363e-04
1.1852177016e+03 2.6670254944e-04
1.1961371895e+03 2.6081070492e-04
1.2070566773e+03 2.5524862043e-04
1.2179761652e+03 2.4996546313e-04
1.2288956530e+03 2.4497130808e-04
1.2398151408e+03 2.4021974296e-04
1.2507346287e+03 2.3572142561e-04
1.2616541165e+03 2.3142953244e-04
1.2725736044e+03 2.2735295493e-04
1.2834930922e+03 2.2345061252e-04
1.2944125801e+03 2.1973810191e-04
1.3053320679e+03 2.1618839239e-04
1.3162515558e+03 2.1282238180e-04
1.3271710436e+03 2.0961672335e-04
1.3380905314e+03 2.0658408424e-04
1.3490100193e+03 2.0369836548e-04
1.3599295071e+03 2.0097131500e-04
1.3708489950e+03 1.9838632900e-04
1.3817684828e+03 1.9596154436e-04
1.3926879707e+03 1.9368023722e-04
1.4036074585e+03 1.9154983207e-04
1.4145269464e+03 1.8953930094e-04
1.4254464342e+03 1.8764680799e-04
1.4363659220e+03 1.8584038580e-04
1.4472854099e+03 1.8412510951e-04
1.4582048977e+03 1.8247981753e-04
1.4691243856e+03 1.8091929297e-04
1.4800438734e+03 1.7943009331e-04
1.4909633613e+03 1.7803020744e-04
1.5018828491e+03 1.7670767181e-04
1.5128023370e+03 1.7547821928e-04
1.5237218248e+03 1.7432666290e-04
1.5346413126e+03 1.7326290360e-04
1.5455608005e+03 1.7226881107e-04
1.5564802883e+03 1.7135296610e-04
1.5673997762e+03 1.7050040595e-04
1.5783192640e+03 1.6972219190e-04
1.5892387519e+03 1.6900526288e-04
1.6001582397e+03 1.6835878481e-04
1.6110777276e+03 1.6776677912e-04
1.6219972154e+03 1.6723374413e-04
1.6329167032e+03 1.6673988870e-04
1.6438361911e+03 1.6628525521e-04
1.6547556789e+03 1.6584751630e-04
1.6656751668e+03 1.6542439545e-04
1.6765946546e+03 1.6499511221e-04
1.6875141425e+03 1.6455934184e-04
1.6984336303e+03 1.6410222060e-04
1.7093531182e+03 1.6362687440e-04
1.7202726060e+03 1.6312577021e-04
1.7311920938e+03 1.6260529160e-04
1.7421115817e+03 1.6206634332e-04
1.7530310695e+03 1.6151848687e-04
1.7639505574e+03 1.6097007863e-04
1.7748700452e+03 1.6043161804e-04
1.7857895331e+03 1.5991410189e-04
1.7967090209e+03 1.5942429448e-04
1.8076285088e+03 1.5896818951e-04
1.8185479966e+03 1.5854345802e-04
1.8294674844e+03 1.5814567273e-04
1.8403869723e+03 1.5776427634e-04
1.8513064601e+03 1.5738930024e-04
1.8622259480e+03 1.5701404502e-04
1.8731454358e+03 1.5663425176e-04
1.8840649237e+03 1.5625708886e-04
1.8949844115e+03 1.5588336700e-04
1.9059038994e+03 1.5552945005e-04
1.9168233872e+03 1.5519054436e-04
1.9277428750e+03 1.5488829129e-04
1.9386623629e+03 1.5460929000e-04
1.9495818507e+03 1.5438278938e-04
1.9605013386e+03 1.5418341439e-04
1.9714208264e+03 1.5404661218e-04
1.9823403143e+03 1.5393069708e-04
1.9932598021e+03 1.5387984079e-04
2.0041792900e+03 1.5383612387e-04
2.0150987778e+03 1.5385782952e-04
2.0260182656e+03 1.5387049761e-04
2.0369377535e+03 1.5394963603e-04
2.0478572413e+03 1.5399964007e-04
2.0587767292e+03 1.5411083272e-04
2.0696962170e+03 1.5416060886e-04
2.0806157049e+03 1.5425620657e-04
2.0915351927e+03 1.5425390523e-04
2.1024546806e+03 1.5428750732e-04
2.1133741684e+03 1.5420106202e-04
2.1242936562e+03 1.5415622989e-04
2.1352131441e+03 1.5398611784e-04
2.1461326319e+03 1.5387128507e-04
2.1570521198e+03 1.5363614188e-04
2.1679716076e+03 1.5347182117e-04
2.1788910955e+03 1.5320500519e-04
2.1898105833e+03 1.5302786785e-04
2.2007300712e+03 1.5278132908e-04
2.2116495590e+03 1.5264303993e-04
2.2225690468e+03 1.5248215600e-04
2.2334885347e+03 1.5244738165e-04
2.2444080225e+03 1.5245549758e-04
2.2553275104e+03 1.5261290680e-04
2.2662469982e+03 1.5290218440e-04
2.2771664861e+03 1.5336889847e-04
2.2880859739e+03 1.5407195339e-04
2.2990054618e+03 1.5497151709e-04
2.3099249496e+03 1.5620463471e-04
2.3208444374e+03 1.5761764473e-04
2.3317639253e+03 1.5942224684e-04
2.3426834131e+03 1.6133018847e-04
2.3536029010e+03 1.6363208380e-04
2.3645223888e+03 1.6590339989e-04
2.3754418767e+03 1.6852549253e-04
2.3863613645e+03 1.7094692274e-04
2.3972808524e+03 1.7364754811e-04
2.4082003402e+03 1.7596230951e-04
2.4191198280e+03 1.7847222141e-04
2.4300393159e+03 1.8041837511e-04
2.4409588037e+03 1.8248325511e-04
2.4518782916e+03 1.8384043396e-04
2.4627977794e+03 1.8527185950e-04
2.4737172673e+03 1.8591280588e-04
2.4846367551e+03 1.8663704295e-04
2.4955562430e+03 1.8656587993e-04
2.5064757308e+03 1.8664482955e-04
2.5173952187e+03 1.8599702168e-04
2.5283147065e+03 1.8560627669e-04
2.5392341943e+03 1.8461090299e-04
2.5501536822e+03 1.8398945424e-04
2.5610731700e+03 1.8291869939e-04
2.5719926579e+03 1.8232637265e-04
2.5829121457e+03 1.8147502950e-04
2.5938316336e+03 1.8119261322e-04
2.6047511214e+03 1.8089313726e-04
2.6156706093e+03 1.8123636606e-04
2.6265900971e+03 1.8186474833e-04
2.6375095849e+03 1.8318711689e-04
2.6484290728e+03 1.8517016744e-04
2.6593485606e+03 1.8788678317e-04
2.6702680485e+03 1.9171951835e-04
2.6811875363e+03 1.9631139314e-04
2.6921070242e+03 2.0249162978e-04
2.7030265120e+03 2.0938004189e-04
2.7139459999e+03 2.1816614994e-04
2.7248654877e+03 2.2740314477e-04
2.7357849755e+03 2.3839467169e-04
2.7467044634e+03 2.4921801846e-04
2.7576239512e+03 2.6089901175e-04
2.7685434391e+03 2.7139513028e-04
2.7794629269e+03 2.8105519762e-04
2.7903824148e+03 2.8844348922e-04
2.8013019026e+03 2.9308097456e-04
2.8122213905e+03 2.9556759342e-04
