# Rotated Reynolds stress Morkovin's scaling
# Columns: y_plus    rho v''w''rotated/tau_wall
3.9832992606e-01 4.2917688580e-06
1.1887924427e+00 3.8210817814e-05
1.9799514194e+00 1.2116437056e-04
2.7719943680e+00 2.7261518221e-04
3.5651283791e+00 5.0374823465e-04
4.3595770683e+00 8.1372248259e-04
5.1555775073e+00 1.1997231576e-03
5.9533773809e+00 1.6556117850e-03
6.7532325235e+00 2.1787356812e-03
7.5554049053e+00 2.7615701425e-03
8.3601610713e+00 3.3971275308e-03
9.1677709952e+00 4.0749600923e-03
9.9785072812e+00 4.7900477509e-03
1.0792644643e+01 5.5334862817e-03
1.1610459588e+01 6.2949890702e-03
1.2432230253e+01 7.0585015388e-03
1.3258236337e+01 7.8153123298e-03
1.4088759099e+01 8.5622643987e-03
1.4924081400e+01 9.3042218452e-03
1.5764487770e+01 1.0042293223e-02
1.6610264487e+01 1.0776428453e-02
1.7461699667e+01 1.1501382237e-02
1.8319083357e+01 1.2214340972e-02
1.9182707631e+01 1.2911793342e-02
2.0052866693e+01 1.3596812273e-02
2.0929856971e+01 1.4275641196e-02
2.1813977219e+01 1.4961471903e-02
2.2705528623e+01 1.5665364714e-02
2.3604814899e+01 1.6394593185e-02
2.4512142398e+01 1.7143491056e-02
2.5427820210e+01 1.7897108136e-02
2.6352160271e+01 1.8632661848e-02
2.7285477466e+01 1.9333074569e-02
2.8228089740e+01 1.9993275307e-02
2.9180318202e+01 2.0626976305e-02
3.0142487241e+01 2.1258344381e-02
3.1114924627e+01 2.1914325894e-02
3.2097961633e+01 2.2611992660e-02
3.3091933139e+01 2.3355686940e-02
3.4097177753e+01 2.4135821360e-02
3.5114037921e+01 2.4935769413e-02
3.6142860047e+01 2.5735086443e-02
3.7183994610e+01 2.6515276600e-02
3.8237796283e+01 2.7264078791e-02
3.9304624055e+01 2.7981058758e-02
4.0384841351e+01 2.8673212516e-02
4.1478816159e+01 2.9347549752e-02
4.2586921152e+01 3.0007453274e-02
4.3709533817e+01 3.0656940033e-02
4.4847036585e+01 3.1303661915e-02
4.5999816957e+01 3.1955366626e-02
4.7168267640e+01 3.2612098454e-02
4.8352786679e+01 3.3267765863e-02
4.9553777591e+01 3.3921201315e-02
5.0771649508e+01 3.4585197714e-02
5.2006817308e+01 3.5284952926e-02
5.3259701767e+01 3.6047147303e-02
5.4530729690e+01 3.6889843078e-02
5.5820334067e+01 3.7818032171e-02
5.7128954215e+01 3.8818484446e-02
5.8457035929e+01 3.9857715577e-02
5.9805031633e+01 4.0897321913e-02
6.1173400536e+01 4.1916504251e-02
6.2562608788e+01 4.2915341421e-02
6.3973129635e+01 4.3900953869e-02
6.5405443587e+01 4.4875832604e-02
6.6860038576e+01 4.5834490373e-02
6.8337410125e+01 4.6772113792e-02
6.9838061516e+01 4.7701581885e-02
7.1362503960e+01 4.8657485395e-02
7.2911256775e+01 4.9688344279e-02
7.4484847559e+01 5.0845249715e-02
7.6083812373e+01 5.2155766568e-02
7.7708695921e+01 5.3596928253e-02
7.9360051734e+01 5.5110600549e-02
8.1038442365e+01 5.6632947969e-02
8.2744439576e+01 5.8103861181e-02
8.4478624530e+01 5.9459725760e-02
8.6241587997e+01 6.0647455878e-02
8.8033930547e+01 6.1646314238e-02
8.9856262762e+01 6.2458243664e-02
9.1709205436e+01 6.3104617829e-02
9.3593389795e+01 6.3604756437e-02
9.5509457704e+01 6.3950521110e-02
9.7458061892e+01 6.4107964681e-02
9.9439866172e+01 6.4045976644e-02
1.0145554566e+02 6.3781934685e-02
1.0350578703e+02 6.3386111367e-02
1.0559128871e+02 6.2973492124e-02
1.0771276115e+02 6.2693342795e-02
1.0987092704e+02 6.2661312060e-02
1.1206652160e+02 6.2906302972e-02
1.1430029277e+02 6.3411453216e-02
1.1657300151e+02 6.4162840338e-02
1.1888542205e+02 6.5099856623e-02
1.2123834212e+02 6.6124469089e-02
1.2363256328e+02 6.7173190167e-02
1.2606890115e+02 6.8260348153e-02
1.2854818569e+02 6.9443301472e-02
1.3107126148e+02 7.0713719395e-02
1.3363898805e+02 7.1925655001e-02
1.3625224012e+02 7.2945518348e-02
1.3891190791e+02 7.3763969637e-02
1.4161889747e+02 7.4421972283e-02
1.4437413097e+02 7.4966059296e-02
1.4717854699e+02 7.5464783632e-02
1.5003310091e+02 7.5963783189e-02
1.5293876514e+02 7.6460497343e-02
1.5589652954e+02 7.6927337755e-02
1.5890740169e+02 7.7340581669e-02
1.6197240728e+02 7.7683904445e-02
1.6509259044e+02 7.8011355219e-02
1.6826901409e+02 7.8413102989e-02
1.7150276031e+02 7.8883500030e-02
1.7479493070e+02 7.9309527892e-02
1.7814664679e+02 7.9582781936e-02
1.8155905037e+02 7.9608092074e-02
1.8503330390e+02 7.9430055303e-02
1.8857059093e+02 7.9245293239e-02
1.9217211647e+02 7.9139211073e-02
1.9583910742e+02 7.9109138898e-02
1.9957281298e+02 7.9142879521e-02
2.0337450507e+02 7.9228856577e-02
2.0724547877e+02 7.9327016825e-02
2.1118705278e+02 7.9298331008e-02
2.1520056983e+02 7.9027905399e-02
2.1928739716e+02 7.8417329706e-02
2.2344892701e+02 7.7543505474e-02
2.2768657703e+02 7.6711766032e-02
2.3200179082e+02 7.6055456983e-02
2.3639603841e+02 7.5678712950e-02
2.4087081674e+02 7.5459634219e-02
2.4542765019e+02 7.5234295960e-02
2.5006809109e+02 7.4781986511e-02
2.5479372026e+02 7.3990876256e-02
2.5960614754e+02 7.2824465380e-02
2.6450701231e+02 7.1370823320e-02
2.6949798412e+02 6.9832813735e-02
2.7458076319e+02 6.8314838375e-02
2.7975708102e+02 6.6791575223e-02
2.8502870098e+02 6.5187005244e-02
2.9039741890e+02 6.3467948790e-02
2.9586506368e+02 6.1669994855e-02
3.0143349794e+02 5.9729415640e-02
3.0710461862e+02 5.7775141612e-02
3.1288035765e+02 5.6026873248e-02
3.1876268259e+02 5.4276062544e-02
3.2475359732e+02 5.2225929002e-02
3.3085514269e+02 4.9968617397e-02
3.3706939727e+02 4.7649638301e-02
3.4339847799e+02 4.5555023795e-02
3.4984454091e+02 4.3515358641e-02
3.5640978188e+02 4.1182488797e-02
3.6309643733e+02 3.8575294406e-02
3.6990678487e+02 3.5826168390e-02
3.7684314396e+02 3.3037503172e-02
3.8390787633e+02 3.0371990842e-02
3.9110338615e+02 2.7868693003e-02
3.9843211953e+02 2.5472030940e-02
4.0589656306e+02 2.3077732407e-02
4.1349924044e+02 2.0818497190e-02
4.2124270614e+02 1.8619390285e-02
4.2912953435e+02 1.6363719998e-02
4.3716230063e+02 1.4220258029e-02
4.4534355328e+02 1.2293860433e-02
4.5367577013e+02 1.0533120000e-02
4.6216129653e+02 9.0139582120e-03
4.7080225980e+02 7.5646883878e-03
4.7960045663e+02 6.0874641736e-03
4.8855721127e+02 4.8092433859e-03
4.9767320634e+02 3.8136887240e-03
5.0694829158e+02 3.0324113807e-03
5.1638128212e+02 2.4002662489e-03
5.2596976245e+02 1.8291644425e-03
5.3570991718e+02 1.3746602160e-03
5.4559641198e+02 1.0523966282e-03
5.5562234697e+02 7.8750064621e-04
5.6577930043e+02 5.6914680651e-04
5.7605747209e+02 3.9904819719e-04
5.8644592435e+02 2.6574977112e-04
5.9693290738e+02 1.7565548702e-04
6.0750624294e+02 9.4908688161e-05
6.1815373393e+02 3.9977911236e-05
6.2886356302e+02 2.0387719100e-05
6.3962464611e+02 1.0810597237e-05
6.5042691296e+02 3.5656126049e-06
6.6126149787e+02 1.6305920826e-06
6.7212083508e+02 5.8759719959e-06
6.8299866488e+02 1.2867002302e-05
6.9388996500e+02 2.0231206339e-05
7.0479082754e+02 2.3031647168e-05
7.1569830307e+02 1.9026293752e-05
7.2661023225e+02 1.5274605750e-05
7.3752508151e+02 1.5175442837e-05
7.4844179417e+02 1.4412565470e-05
7.5935966386e+02 1.2772035255e-05
7.7027823245e+02 1.1882282842e-05
7.8119721165e+02 1.1588168184e-05
7.9211642543e+02 1.1509529893e-05
8.0303576952e+02 1.1460840115e-05
8.1395518398e+02 1.1422875365e-05
8.2487463536e+02 1.1379186562e-05
8.3579410559e+02 1.1336070035e-05
8.4671358515e+02 1.1260089382e-05
8.5763306920e+02 1.1148118236e-05
8.6855255537e+02 1.0975290857e-05
8.7947204248e+02 1.0758607793e-05
8.9039153002e+02 1.0497686487e-05
9.0131101774e+02 1.0225741471e-05
9.1223050554e+02 9.9484114452e-06
9.2314999336e+02 9.6950946708e-06
9.3406948120e+02 9.4592423126e-06
9.4498896904e+02 9.2558788655e-06
9.5590845688e+02 9.0642704199e-06
9.6682794473e+02 8.8892112133e-06
9.7774743257e+02 8.7053372600e-06
9.8866692042e+02 8.5195931170e-06
9.9958640826e+02 8.3103328107e-06
1.0105058961e+03 8.0912914690e-06
1.0214253840e+03 7.8465783332e-06
1.0323448718e+03 7.5984478196e-06
1.0432643596e+03 7.3367303364e-06
1.0541838475e+03 7.0875212446e-06
1.0651033353e+03 6.8429007448e-06
1.0760228232e+03 6.6280668590e-06
1.0869423110e+03 6.4355757086e-06
1.0978617989e+03 6.2836541043e-06
1.1087812867e+03 6.1590283086e-06
1.1197007746e+03 6.0687522879e-06
1.1306202624e+03 5.9976242863e-06
1.1415397502e+03 5.9504989009e-06
1.1524592381e+03 5.9150502591e-06
1.1633787259e+03 5.8910142844e-06
1.1742982138e+03 5.8628931924e-06
1.1852177016e+03 5.8265740848e-06
1.1961371895e+03 5.7713515378e-06
1.2070566773e+03 5.7000118596e-06
1.2179761652e+03 5.6118660218e-06
1.2288956530e+03 5.5173141771e-06
1.2398151408e+03 5.4206441140e-06
1.2507346287e+03 5.3322401621e-06
1.2616541165e+03 5.2551017596e-06
1.2725736044e+03 5.1973865223e-06
1.2834930922e+03 5.1592386151e-06
1.2944125801e+03 5.1405802624e-06
1.3053320679e+03 5.1301232657e-06
1.3162515558e+03 5.1174916516e-06
1.3271710436e+03 5.0892062723e-06
1.3380905314e+03 5.0405379396e-06
1.3490100193e+03 4.9687088116e-06
1.3599295071e+03 4.8782647562e-06
1.3708489950e+03 4.7723753379e-06
1.3817684828e+03 4.6576871792e-06
1.3926879707e+03 4.5377174416e-06
1.4036074585e+03 4.4177728504e-06
1.4145269464e+03 4.2986129594e-06
1.4254464342e+03 4.1820852695e-06
1.4363659220e+03 4.0680532649e-06
1.4472854099e+03 3.9585853357e-06
1.4582048977e+03 3.8547352756e-06
1.4691243856e+03 3.7563021581e-06
1.4800438734e+03 3.6629096817e-06
1.4909633613e+03 3.5726147312e-06
1.5018828491e+03 3.4866842006e-06
1.5128023370e+03 3.4029188261e-06
1.5237218248e+03 3.3227631465e-06
1.5346413126e+03 3.2414961270e-06
1.5455608005e+03 3.1588456345e-06
1.5564802883e+03 3.0679957585e-06
1.5673997762e+03 2.9678656713e-06
1.5783192640e+03 2.8536609671e-06
1.5892387519e+03 2.7262006485e-06
1.6001582397e+03 2.5866038251e-06
1.6110777276e+03 2.4374440602e-06
1.6219972154e+03 2.2847904376e-06
1.6329167032e+03 2.1289678279e-06
1.6438361911e+03 1.9790739708e-06
1.6547556789e+03 1.8321173594e-06
1.6656751668e+03 1.7002281023e-06
1.6765946546e+03 1.5738198749e-06
1.6875141425e+03 1.4642302426e-06
1.6984336303e+03 1.3528836642e-06
1.7093531182e+03 1.2522965338e-06
1.7202726060e+03 1.1408171062e-06
1.7311920938e+03 1.0384675317e-06
1.7421115817e+03 9.2558303294e-07
1.7530310695e+03 8.2787959276e-07
1.7639505574e+03 7.2263326799e-07
1.7748700452e+03 6.3438205719e-07
1.7857895331e+03 5.3669596511e-07
1.7967090209e+03 4.5678078388e-07
1.8076285088e+03 3.6949410161e-07
1.8185479966e+03 3.0622051041e-07
1.8294674844e+03 2.3878892586e-07
1.8403869723e+03 1.9748629688e-07
1.8513064601e+03 1.4733736038e-07
1.8622259480e+03 1.2106422702e-07
1.8731454358e+03 8.4443499953e-08
1.8840649237e+03 7.8984991712e-08
1.8949844115e+03 6.9159135526e-08
1.9059038994e+03 9.4454404473e-08
1.9168233872e+03 1.0865865298e-07
1.9277428750e+03 1.4572361582e-07
1.9386623629e+03 1.5643053252e-07
1.9495818507e+03 1.7663229746e-07
1.9605013386e+03 1.6149668289e-07
1.9714208264e+03 1.4925623859e-07
1.9823403143e+03 1.0000512876e-07
1.9932598021e+03 5.2937463331e-08
2.0041792900e+03 -2.8121921075e-08
2.0150987778e+03 -1.0539162310e-07
2.0260182656e+03 -2.1378081274e-07
2.0369377535e+03 -3.1898591614e-07
2.0478572413e+03 -4.5670171430e-07
2.0587767292e+03 -5.9783301955e-07
2.0696962170e+03 -7.7706740693e-07
2.0806157049e+03 -9.6345779538e-07
2.0915351927e+03 -1.1816425078e-06
2.1024546806e+03 -1.3947622015e-06
2.1133741684e+03 -1.6222268438e-06
2.1242936562e+03 -1.8324246277e-06
2.1352131441e+03 -2.0491451890e-06
2.1461326319e+03 -2.2486313725e-06
2.1570521198e+03 -2.4537434630e-06
2.1679716076e+03 -2.6410752424e-06
2.1788910955e+03 -2.8273999273e-06
2.1898105833e+03 -2.9911503627e-06
2.2007300712e+03 -3.1458165802e-06
2.2116495590e+03 -3.2774660063e-06
2.2225690468e+03 -3.3969359836e-06
2.2334885347e+03 -3.5010005076e-06
2.2444080225e+03 -3.5960883120e-06
2.2553275104e+03 -3.6899355299e-06
2.2662469982e+03 -3.7805376295e-06
2.2771664861e+03 -3.8808295355e-06
2.2880859739e+03 -3.9772117893e-06
2.2990054618e+03 -4.0847023224e-06
2.3099249496e+03 -4.1846145963e-06
2.3208444374e+03 -4.2932084167e-06
2.3317639253e+03 -4.3902223401e-06
2.3426834131e+03 -4.4859998379e-06
2.3536029010e+03 -4.5615669926e-06
2.3645223888e+03 -4.6227702005e-06
2.3754418767e+03 -4.6618879219e-06
2.3863613645e+03 -4.6835735240e-06
2.3972808524e+03 -4.6925647376e-06
2.4082003402e+03 -4.6881576539e-06
2.4191198280e+03 -4.6846009002e-06
2.4300393159e+03 -4.6739966118e-06
2.4409588037e+03 -4.6785347014e-06
2.4518782916e+03 -4.6821774475e-06
2.4627977794e+03 -4.7122521401e-06
2.4737172673e+03 -4.7456338511e-06
2.4846367551e+03 -4.8129064928e-06
2.4955562430e+03 -4.8871583667e-06
2.5064757308e+03 -4.9969475270e-06
2.5173952187e+03 -5.1140379829e-06
2.5283147065e+03 -5.2583393516e-06
2.5392341943e+03 -5.4071584488e-06
2.5501536822e+03 -5.5688139680e-06
2.5610731700e+03 -5.7334731876e-06
2.5719926579e+03 -5.8910453734e-06
2.5829121457e+03 -6.0487239723e-06
2.5938316336e+03 -6.1706168289e-06
2.6047511214e+03 -6.2933704412e-06
2.6156706093e+03 -6.3518696946e-06
2.6265900971e+03 -6.4287045597e-06
2.6375095849e+03 -6.4178121122e-06
2.6484290728e+03 -6.4569225614e-06
2.6593485606e+03 -6.3817597133e-06
2.6702680485e+03 -6.3969989339e-06
2.6811875363e+03 -6.2718602943e-06
2.6921070242e+03 -6.2921174242e-06
2.7030265120e+03 -6.1520606407e-06
2.7139459999e+03 -6.2197768359e-06
2.7248654877e+03 -6.1087368342e-06
2.7357849755e+03 -6.2600684249e-06
2.7467044634e+03 -6.2189048629e-06
2.7576239512e+03 -6.4637130712e-06
2.7685434391e+03 -6.5111637695e-06
2.7794629269e+03 -6.8075696371e-06
2.7903824148e+03 -6.9317492019e-06
2.8013019026e+03 -7.2077559937e-06
2.8122213905e+03 -7.3711410088e-06
