# Inner-scaled velocity profile
# Columns: y_plus    U_parallel_plus
3.8646263475e-01 3.8448149195e-01
1.1533752036e+00 1.1533752036e+00
1.9209634831e+00 1.9205841452e+00
2.6894093988e+00 2.6819511557e+00
3.4589138713e+00 3.4312879047e+00
4.2296938542e+00 4.1613458672e+00
5.0019793562e+00 4.8650350762e+00
5.7760106829e+00 5.5362536726e+00
6.5520360469e+00 6.1705345294e+00
7.3303096133e+00 6.7650975787e+00
8.1110899864e+00 7.3188475753e+00
8.8946390963e+00 7.8319749104e+00
9.6812214258e+00 8.3057418596e+00
1.0471103504e+01 8.7420440989e+00
1.1264553601e+01 9.1432654134e+00
1.2061841567e+01 9.5119570863e+00
1.2863238767e+01 9.8508054079e+00
1.3669018081e+01 1.0162413763e+01
1.4479453944e+01 1.0449338430e+01
1.5294822408e+01 1.0713935882e+01
1.6115401223e+01 1.0958439563e+01
1.6941469919e+01 1.1184852458e+01
1.7773309905e+01 1.1395039029e+01
1.8611204551e+01 1.1590636098e+01
1.9455439297e+01 1.1773138405e+01
2.0306301738e+01 1.1943822137e+01
2.1164081729e+01 1.2103834144e+01
2.2029071483e+01 1.2254142445e+01
2.2901565666e+01 1.2395631268e+01
2.3781861504e+01 1.2529061894e+01
2.4670258877e+01 1.2655149944e+01
2.5567060427e+01 1.2774520019e+01
2.6472571660e+01 1.2887765275e+01
2.7387101046e+01 1.2995404858e+01
2.8310960130e+01 1.3097936459e+01
2.9244463634e+01 1.3195801215e+01
3.0187929564e+01 1.3289429282e+01
3.1141679324e+01 1.3379202972e+01
3.2106037817e+01 1.3465485253e+01
3.3081333562e+01 1.3548580443e+01
3.4067898803e+01 1.3628760490e+01
3.5066069625e+01 1.3706239758e+01
3.6076186064e+01 1.3781211924e+01
3.7098592226e+01 1.3853842688e+01
3.8133636406e+01 1.3924305454e+01
3.9181671201e+01 1.3992763429e+01
4.0243053635e+01 1.4059385827e+01
4.1318145279e+01 1.4124324644e+01
4.2407312375e+01 1.4187727657e+01
4.3510925957e+01 1.4249723187e+01
4.4629361984e+01 1.4310440116e+01
4.5763001462e+01 1.4369996144e+01
4.6912230577e+01 1.4428507055e+01
4.8077440826e+01 1.4486067609e+01
4.9259029150e+01 1.4542759313e+01
5.0457398069e+01 1.4598644299e+01
5.1672955819e+01 1.4653784322e+01
5.2906116493e+01 1.4708234615e+01
5.4157300179e+01 1.4762051674e+01
5.5426933107e+01 1.4815285255e+01
5.6715447790e+01 1.4867987259e+01
5.8023283173e+01 1.4920202983e+01
5.9350884784e+01 1.4971976812e+01
6.0698704885e+01 1.5023347787e+01
6.2067202624e+01 1.5074361289e+01
6.3456844193e+01 1.5125065706e+01
6.4868102990e+01 1.5175520045e+01
6.6301459772e+01 1.5225794743e+01
6.7757402829e+01 1.5275977059e+01
6.9236428142e+01 1.5326152013e+01
7.0739039556e+01 1.5376385595e+01
7.2265748952e+01 1.5426712795e+01
7.3817076418e+01 1.5477151514e+01
7.5393550430e+01 1.5527701586e+01
7.6995708031e+01 1.5578338066e+01
7.8624095011e+01 1.5629005137e+01
8.0279266098e+01 1.5679634597e+01
8.1961785143e+01 1.5730176896e+01
8.3672225313e+01 1.5780638951e+01
8.5411169286e+01 1.5831066442e+01
8.7179209453e+01 1.5881504356e+01
8.8976948115e+01 1.5932003441e+01
9.0804997688e+01 1.5982652299e+01
9.2663980918e+01 1.6033546808e+01
9.4554531086e+01 1.6084751490e+01
9.6477292228e+01 1.6136302161e+01
9.8432919351e+01 1.6188220390e+01
1.0042207866e+02 1.6240509230e+01
1.0244544778e+02 1.6293159059e+01
1.0450371600e+02 1.6346169164e+01
1.0659758449e+02 1.6399549697e+01
1.0872776654e+02 1.6453286178e+01
1.1089498782e+02 1.6507335852e+01
1.1309998661e+02 1.6561649133e+01
1.1534351409e+02 1.6616203483e+01
1.1762633451e+02 1.6671020213e+01
1.1994922556e+02 1.6726129907e+01
1.2231297854e+02 1.6781552854e+01
1.2471839870e+02 1.6837345440e+01
1.2716630546e+02 1.6893610045e+01
1.2965753273e+02 1.6950412750e+01
1.3219292918e+02 1.7007733426e+01
1.3477335850e+02 1.7065507536e+01
1.3739969976e+02 1.7123668499e+01
1.4007284764e+02 1.7182151310e+01
1.4279371277e+02 1.7240949558e+01
1.4556322205e+02 1.7300182059e+01
1.4838231894e+02 1.7359964354e+01
1.5125196379e+02 1.7420314170e+01
1.5417313418e+02 1.7481310522e+01
1.5714682523e+02 1.7543065794e+01
1.6017404996e+02 1.7605586590e+01
1.6325583964e+02 1.7668835927e+01
1.6639324409e+02 1.7732742734e+01
1.6958733211e+02 1.7797137574e+01
1.7283919180e+02 1.7861857997e+01
1.7614993094e+02 1.7926919058e+01
1.7952067737e+02 1.7992432011e+01
1.8295257936e+02 1.8058472926e+01
1.8644680602e+02 1.8125094172e+01
1.9000454771e+02 1.8192298556e+01
1.9362701641e+02 1.8260094125e+01
1.9731544613e+02 1.8328531380e+01
2.0107109340e+02 1.8397669963e+01
2.0489523759e+02 1.8467566249e+01
2.0878918146e+02 1.8538143455e+01
2.1275425151e+02 1.8609336840e+01
2.1679179849e+02 1.8681154055e+01
2.2090319782e+02 1.8753623817e+01
2.2508985010e+02 1.8826714526e+01
2.2935318154e+02 1.8900224166e+01
2.3369464451e+02 1.8974105933e+01
2.3811571797e+02 1.9048438709e+01
2.4261790799e+02 1.9123309779e+01
2.4720274829e+02 1.9198747054e+01
2.5187180076e+02 1.9274622032e+01
2.5662665594e+02 1.9350694176e+01
2.6146893364e+02 1.9426913532e+01
2.6640028341e+02 1.9503518798e+01
2.7142238519e+02 1.9580605666e+01
2.7653694978e+02 1.9658137062e+01
2.8174571954e+02 1.9736156005e+01
2.8705046887e+02 1.9814650514e+01
2.9245300490e+02 1.9893522520e+01
2.9795516805e+02 1.9972654396e+01
3.0355883269e+02 2.0051851694e+01
3.0926590777e+02 2.0131124016e+01
3.1507833746e+02 2.0210408668e+01
3.2099810182e+02 2.0289632752e+01
3.2702721749e+02 2.0368779569e+01
3.3316773833e+02 2.0447695244e+01
3.3942175615e+02 2.0526366606e+01
3.4579140141e+02 2.0604592794e+01
3.5227884389e+02 2.0682180317e+01
3.5888629334e+02 2.0758761079e+01
3.6561600013e+02 2.0834000205e+01
3.7247025564e+02 2.0907579234e+01
3.7945139238e+02 2.0979313925e+01
3.8656178361e+02 2.1049161896e+01
3.9380384183e+02 2.1116761012e+01
4.0118001554e+02 2.1181802973e+01
4.0869278313e+02 2.1243812690e+01
4.1634464207e+02 2.1302275849e+01
4.2413809122e+02 2.1357132279e+01
4.3207560294e+02 2.1408088340e+01
4.4015958123e+02 2.1454597676e+01
4.4839230158e+02 2.1496752791e+01
4.5677582794e+02 2.1534566455e+01
4.6531190345e+02 2.1568058167e+01
4.7400181292e+02 2.1597445463e+01
4.8284621863e+02 2.1622851592e+01
4.9184497480e+02 2.1644472169e+01
5.0099693186e+02 2.1662593068e+01
5.1029974625e+02 2.1677500168e+01
5.1974971627e+02 2.1689373522e+01
5.2934166651e+02 2.1698392822e+01
5.3906890265e+02 2.1705173204e+01
5.4892325388e+02 2.1710367532e+01
5.5889521190e+02 2.1714345647e+01
5.6897416497e+02 2.1717301297e+01
5.7914871332e+02 2.1719394958e+01
5.8940704153e+02 2.1720816501e+01
5.9973731589e+02 2.1721728542e+01
6.1012807113e+02 2.1722317149e+01
6.2056855339e+02 2.1722705775e+01
6.3104899243e+02 2.1722951357e+01
6.4156078668e+02 2.1723104042e+01
6.5209659581e+02 2.1723194168e+01
6.6265034658e+02 2.1723240787e+01
6.7321716636e+02 2.1723259506e+01
6.8379326367e+02 2.1723263899e+01
6.9437577694e+02 2.1723258878e+01
7.0496261119e+02 2.1723251074e+01
7.1555227852e+02 2.1723241667e+01
7.2614375372e+02 2.1723229069e+01
7.3673635149e+02 2.1723218233e+01
7.4732962734e+02 2.1723210832e+01
7.5792330156e+02 2.1723200984e+01
7.6851720338e+02 2.1723188318e+01
7.7911123163e+02 2.1723174644e+01
7.8970532814e+02 2.1723161365e+01
8.0029946048e+02 2.1723147770e+01
8.1089361110e+02 2.1723134555e+01
8.2148777078e+02 2.1723121178e+01
8.3208193482e+02 2.1723108452e+01
8.4267610090e+02 2.1723095543e+01
8.5327026791e+02 2.1723083065e+01
8.6386443532e+02 2.1723070077e+01
8.7445860292e+02 2.1723057405e+01
8.8505277058e+02 2.1723044441e+01
8.9564693828e+02 2.1723032204e+01
9.0624110599e+02 2.1723020110e+01
9.1683527370e+02 2.1723009044e+01
9.2742944141e+02 2.1722997985e+01
9.3802360913e+02 2.1722987448e+01
9.4861777684e+02 2.1722976154e+01
9.5921194456e+02 2.1722964572e+01
9.6980611227e+02 2.1722951743e+01
9.8040027999e+02 2.1722938382e+01
9.9099444770e+02 2.1722924067e+01
1.0015886154e+03 2.1722909677e+01
1.0121827831e+03 2.1722895006e+01
1.0227769508e+03 2.1722880761e+01
1.0333711186e+03 2.1722866669e+01
1.0439652863e+03 2.1722853253e+01
1.0545594540e+03 2.1722840211e+01
1.0651536217e+03 2.1722827947e+01
1.0757477894e+03 2.1722816114e+01
1.0863419571e+03 2.1722804953e+01
1.0969361249e+03 2.1722794009e+01
1.1075302926e+03 2.1722783400e+01
1.1181244603e+03 2.1722772649e+01
1.1287186280e+03 2.1722761946e+01
1.1393127957e+03 2.1722750839e+01
1.1499069634e+03 2.1722739595e+01
1.1605011311e+03 2.1722727709e+01
1.1710952989e+03 2.1722715556e+01
1.1816894666e+03 2.1722702658e+01
1.1922836343e+03 2.1722689620e+01
1.2028778020e+03 2.1722676033e+01
1.2134719697e+03 2.1722662657e+01
1.2240661374e+03 2.1722649005e+01
1.2346603051e+03 2.1722635708e+01
1.2452544729e+03 2.1722621975e+01
1.2558486406e+03 2.1722608134e+01
1.2664428083e+03 2.1722593157e+01
1.2770369760e+03 2.1722577351e+01
1.2876311437e+03 2.1722559932e+01
1.2982253114e+03 2.1722541695e+01
1.3088194791e+03 2.1722522455e+01
1.3194136469e+03 2.1722503475e+01
1.3300078146e+03 2.1722484816e+01
1.3406019823e+03 2.1722467601e+01
1.3511961500e+03 2.1722451539e+01
1.3617903177e+03 2.1722437215e+01
1.3723844854e+03 2.1722423885e+01
1.3829786531e+03 2.1722411795e+01
1.3935728209e+03 2.1722400123e+01
1.4041669886e+03 2.1722389141e+01
1.4147611563e+03 2.1722378229e+01
1.4253553240e+03 2.1722367785e+01
1.4359494917e+03 2.1722357391e+01
1.4465436594e+03 2.1722347506e+01
1.4571378272e+03 2.1722337831e+01
1.4677319949e+03 2.1722328796e+01
1.4783261626e+03 2.1722320082e+01
1.4889203303e+03 2.1722311920e+01
1.4995144980e+03 2.1722303817e+01
1.5101086657e+03 2.1722295748e+01
1.5207028334e+03 2.1722287100e+01
1.5312970012e+03 2.1722277805e+01
1.5418911689e+03 2.1722267373e+01
1.5524853366e+03 2.1722255963e+01
1.5630795043e+03 2.1722243326e+01
1.5736736720e+03 2.1722229889e+01
1.5842678397e+03 2.1722215507e+01
1.5948620074e+03 2.1722200684e+01
1.6054561752e+03 2.1722185193e+01
1.6160503429e+03 2.1722169540e+01
1.6266445106e+03 2.1722153490e+01
1.6372386783e+03 2.1722137696e+01
1.6478328460e+03 2.1722121998e+01
1.6584270137e+03 2.1722107138e+01
1.6690211814e+03 2.1722092829e+01
1.6796153492e+03 2.1722079659e+01
1.6902095169e+03 2.1722067017e+01
1.7008036846e+03 2.1722055300e+01
1.7113978523e+03 2.1722043697e+01
1.7219920200e+03 2.1722032633e+01
1.7325861877e+03 2.1722021346e+01
1.7431803555e+03 2.1722010472e+01
1.7537745232e+03 2.1721999403e+01
1.7643686909e+03 2.1721988897e+01
1.7749628586e+03 2.1721978327e+01
1.7855570263e+03 2.1721968346e+01
1.7961511940e+03 2.1721958267e+01
1.8067453617e+03 2.1721948663e+01
1.8173395295e+03 2.1721938957e+01
1.8279336972e+03 2.1721929683e+01
1.8385278649e+03 2.1721920424e+01
1.8491220326e+03 2.1721911557e+01
1.8597162003e+03 2.1721902803e+01
1.8703103680e+03 2.1721894331e+01
1.8809045357e+03 2.1721886096e+01
1.8914987035e+03 2.1721878092e+01
1.9020928712e+03 2.1721870523e+01
1.9126870389e+03 2.1721863136e+01
1.9232812066e+03 2.1721856290e+01
1.9338753743e+03 2.1721849475e+01
1.9444695420e+03 2.1721843117e+01
1.9550637097e+03 2.1721836475e+01
1.9656578775e+03 2.1721829976e+01
1.9762520452e+03 2.1721822797e+01
1.9868462129e+03 2.1721815433e+01
1.9974403806e+03 2.1721807200e+01
2.0080345483e+03 2.1721798716e+01
2.0186287160e+03 2.1721789610e+01
2.0292228837e+03 2.1721780640e+01
2.0398170515e+03 2.1721771850e+01
2.0504112192e+03 2.1721763975e+01
2.0610053869e+03 2.1721757298e+01
2.0715995546e+03 2.1721752115e+01
2.0821937223e+03 2.1721748674e+01
2.0927878900e+03 2.1721746633e+01
2.1033820578e+03 2.1721746257e+01
2.1139762255e+03 2.1721746706e+01
2.1245703932e+03 2.1721748385e+01
2.1351645609e+03 2.1721750049e+01
2.1457587286e+03 2.1721752219e+01
2.1563528963e+03 2.1721753398e+01
2.1669470640e+03 2.1721754358e+01
2.1775412318e+03 2.1721753718e+01
2.1881353995e+03 2.1721752624e+01
2.1987295672e+03 2.1721749945e+01
2.2093237349e+03 2.1721746972e+01
2.2199179026e+03 2.1721742730e+01
2.2305120703e+03 2.1721738437e+01
2.2411062380e+03 2.1721733341e+01
2.2517004058e+03 2.1721728582e+01
2.2622945735e+03 2.1721723674e+01
2.2728887412e+03 2.1721719520e+01
2.2834829089e+03 2.1721715647e+01
2.2940770766e+03 2.1721712456e+01
2.3046712443e+03 2.1721709317e+01
2.3152654120e+03 2.1721706226e+01
2.3258595798e+03 2.1721702568e+01
2.3364537475e+03 2.1721698298e+01
2.3470479152e+03 2.1721693008e+01
2.3576420829e+03 2.1721686879e+01
2.3682362506e+03 2.1721679685e+01
2.3788304183e+03 2.1721671865e+01
2.3894245861e+03 2.1721663111e+01
2.4000187538e+03 2.1721654024e+01
2.4106129215e+03 2.1721643937e+01
2.4212070892e+03 2.1721633687e+01
2.4318012569e+03 2.1721622227e+01
2.4423954246e+03 2.1721610870e+01
2.4529895923e+03 2.1721598220e+01
2.4635837601e+03 2.1721586123e+01
2.4741779278e+03 2.1721572695e+01
2.4847720955e+03 2.1721560183e+01
2.4953662632e+03 2.1721546153e+01
2.5059604309e+03 2.1721533195e+01
2.5165545986e+03 2.1721518467e+01
2.5271487663e+03 2.1721504898e+01
2.5377429341e+03 2.1721489459e+01
2.5483371018e+03 2.1721475369e+01
2.5589312695e+03 2.1721459532e+01
2.5695254372e+03 2.1721445272e+01
2.5801196049e+03 2.1721429402e+01
2.5907137726e+03 2.1721415213e+01
2.6013079403e+03 2.1721399461e+01
2.6119021081e+03 2.1721385459e+01
2.6224962758e+03 2.1721370002e+01
2.6330904435e+03 2.1721356388e+01
2.6436846112e+03 2.1721341500e+01
2.6542787789e+03 2.1721328343e+01
2.6648729466e+03 2.1721314200e+01
2.6754671143e+03 2.1721301408e+01
2.6860612821e+03 2.1721288241e+01
2.6966554498e+03 2.1721275769e+01
2.7072496175e+03 2.1721263307e+01
2.7178437852e+03 2.1721250314e+01
2.7284379529e+03 2.1721239844e+01
