# Mean flow yaw angle vs inner units (degrees)
# Columns: y_plus    Phi_deg
3.8646263475e-01 -1.6939939226e-02
1.1533752036e+00 -1.6567392387e-02
1.9209634831e+00 -1.5910083006e-02
2.6894093988e+00 -1.5048092549e-02
3.4589138713e+00 -1.4109498916e-02
4.2296938542e+00 -1.3239976599e-02
5.0019793562e+00 -1.2561537897e-02
5.7760106829e+00 -1.2132796563e-02
6.5520360469e+00 -1.1946333515e-02
7.3303096133e+00 -1.1952651343e-02
8.1110899864e+00 -1.2106166180e-02
8.8946390963e+00 -1.2385798190e-02
9.6812214258e+00 -1.2800143751e-02
1.0471103504e+01 -1.3367818651e-02
1.1264553601e+01 -1.4108160961e-02
1.2061841567e+01 -1.5026884901e-02
1.2863238767e+01 -1.6113984160e-02
1.3669018081e+01 -1.7334737640e-02
1.4479453944e+01 -1.8635967661e-02
1.5294822408e+01 -1.9952948772e-02
1.6115401223e+01 -2.1226866412e-02
1.6941469919e+01 -2.2412961191e-02
1.7773309905e+01 -2.3490635543e-02
1.8611204551e+01 -2.4463645812e-02
1.9455439297e+01 -2.5359369818e-02
2.0306301738e+01 -2.6218718541e-02
2.1164081729e+01 -2.7085288584e-02
2.2029071483e+01 -2.7991085029e-02
2.2901565666e+01 -2.8948684865e-02
2.3781861504e+01 -2.9949854830e-02
2.4670258877e+01 -3.0975528476e-02
2.5567060427e+01 -3.2012829369e-02
2.6472571660e+01 -3.3066855134e-02
2.7387101046e+01 -3.4157961076e-02
2.8310960130e+01 -3.5307980112e-02
2.9244463634e+01 -3.6528161386e-02
3.0187929564e+01 -3.7812020264e-02
3.1141679324e+01 -3.9137842479e-02
3.2106037817e+01 -4.0474536906e-02
3.3081333562e+01 -4.1785470734e-02
3.4067898803e+01 -4.3023684071e-02
3.5066069625e+01 -4.4133442525e-02
3.6076186064e+01 -4.5056325824e-02
3.7098592226e+01 -4.5736595211e-02
3.8133636406e+01 -4.6115404349e-02
3.9181671201e+01 -4.6130132434e-02
4.0243053635e+01 -4.5725824424e-02
4.1318145279e+01 -4.4880833311e-02
4.2407312375e+01 -4.3627498949e-02
4.3510925957e+01 -4.2060795956e-02
4.4629361984e+01 -4.0321539658e-02
4.5763001462e+01 -3.8560858510e-02
4.6912230577e+01 -3.6897470008e-02
4.8077440826e+01 -3.5398957509e-02
4.9259029150e+01 -3.4087565828e-02
5.0457398069e+01 -3.2962023388e-02
5.1672955819e+01 -3.2015816743e-02
5.2906116493e+01 -3.1240013675e-02
5.4157300179e+01 -3.0605483178e-02
5.5426933107e+01 -3.0049094329e-02
5.6715447790e+01 -2.9487030330e-02
5.8023283173e+01 -2.8861163186e-02
5.9350884784e+01 -2.8176582171e-02
6.0698704885e+01 -2.7487824325e-02
6.2067202624e+01 -2.6843618282e-02
6.3456844193e+01 -2.6257760956e-02
6.4868102990e+01 -2.5727347140e-02
6.6301459772e+01 -2.5253427422e-02
6.7757402829e+01 -2.4852207914e-02
6.9236428142e+01 -2.4569317672e-02
7.0739039556e+01 -2.4455475587e-02
7.2265748952e+01 -2.4518281596e-02
7.3817076418e+01 -2.4712093319e-02
7.5393550430e+01 -2.4964927969e-02
7.6995708031e+01 -2.5211761660e-02
7.8624095011e+01 -2.5403609206e-02
8.0279266098e+01 -2.5490872695e-02
8.1961785143e+01 -2.5422459179e-02
8.3672225313e+01 -2.5182528969e-02
8.5411169286e+01 -2.4859151331e-02
8.7179209453e+01 -2.4625038914e-02
8.8976948115e+01 -2.4579843601e-02
9.0804997688e+01 -2.4619845627e-02
9.2663980918e+01 -2.4494661545e-02
9.4554531086e+01 -2.3973929766e-02
9.6477292228e+01 -2.2935992177e-02
9.8432919351e+01 -2.1379150529e-02
1.0042207866e+02 -1.9436626338e-02
1.0244544778e+02 -1.7339064689e-02
1.0450371600e+02 -1.5281473597e-02
1.0659758449e+02 -1.3347155520e-02
1.0872776654e+02 -1.1532918945e-02
1.1089498782e+02 -9.8495402509e-03
1.1309998661e+02 -8.3452083518e-03
1.1534351409e+02 -6.9757446018e-03
1.1762633451e+02 -5.5651234950e-03
1.1994922556e+02 -3.9656113024e-03
1.2231297854e+02 -2.1649624113e-03
1.2471839870e+02 -2.1203379633e-04
1.2716630546e+02 1.7386135943e-03
1.2965753273e+02 3.4254032124e-03
1.3219292918e+02 4.6303753353e-03
1.3477335850e+02 5.2827812298e-03
1.3739969976e+02 5.4824083215e-03
1.4007284764e+02 5.4315939518e-03
1.4279371277e+02 5.3334168920e-03
1.4556322205e+02 5.4525364217e-03
1.4838231894e+02 6.0191600292e-03
1.5125196379e+02 6.8980866662e-03
1.5417313418e+02 7.7335298489e-03
1.5714682523e+02 8.4186629459e-03
1.6017404996e+02 9.0266323804e-03
1.6325583964e+02 9.4868782178e-03
1.6639324409e+02 9.8348268355e-03
1.6958733211e+02 1.0146548062e-02
1.7283919180e+02 1.0364537997e-02
1.7614993094e+02 1.0491542226e-02
1.7952067737e+02 1.0237737508e-02
1.8295257936e+02 9.0273965288e-03
1.8644680602e+02 6.6078662012e-03
1.9000454771e+02 3.0090003288e-03
1.9362701641e+02 -1.4180739652e-03
1.9731544613e+02 -5.9215455205e-03
2.0107109340e+02 -9.8549018582e-03
2.0489523759e+02 -1.2952156273e-02
2.0878918146e+02 -1.5143561510e-02
2.1275425151e+02 -1.6393066164e-02
2.1679179849e+02 -1.6707490203e-02
2.2090319782e+02 -1.6094650539e-02
2.2508985010e+02 -1.4758833973e-02
2.2935318154e+02 -1.3088129161e-02
2.3369464451e+02 -1.1465180283e-02
2.3811571797e+02 -9.9405010079e-03
2.4261790799e+02 -7.9875245216e-03
2.4720274829e+02 -5.0578407435e-03
2.5187180076e+02 -1.3442489707e-03
2.5662665594e+02 2.1318425924e-03
2.6146893364e+02 4.8099640293e-03
2.6640028341e+02 7.2238754108e-03
2.7142238519e+02 9.5313424930e-03
2.7653694978e+02 1.1609739595e-02
2.8174571954e+02 1.4034634036e-02
2.8705046887e+02 1.6799644433e-02
2.9245300490e+02 1.9050996945e-02
2.9795516805e+02 2.0355316172e-02
3.0355883269e+02 2.0631809281e-02
3.0926590777e+02 1.9965460154e-02
3.1507833746e+02 1.9423463661e-02
3.2099810182e+02 1.9341776643e-02
3.2702721749e+02 1.8551733848e-02
3.3316773833e+02 1.6761868387e-02
3.3942175615e+02 1.4848914084e-02
3.4579140141e+02 1.3344411474e-02
3.5227884389e+02 1.1955103920e-02
3.5888629334e+02 1.0413113721e-02
3.6561600013e+02 8.8884493045e-03
3.7247025564e+02 7.3674374446e-03
3.7945139238e+02 5.5550203069e-03
3.8656178361e+02 3.6355595295e-03
3.9380384183e+02 2.2036414043e-03
4.0118001554e+02 1.3568972329e-03
4.0869278313e+02 1.6716879013e-04
4.1634464207e+02 -1.0895391534e-03
4.2413809122e+02 -2.1193637365e-03
4.3207560294e+02 -2.8546139942e-03
4.4015958123e+02 -3.3199074500e-03
4.4839230158e+02 -3.5145584123e-03
4.5677582794e+02 -3.1671105537e-03
4.6531190345e+02 -2.4940678108e-03
4.7400181292e+02 -1.9437283923e-03
4.8284621863e+02 -1.7716358223e-03
4.9184497480e+02 -1.4452534358e-03
5.0099693186e+02 -7.7834233270e-04
5.1029974625e+02 -2.7903046881e-04
5.1974971627e+02 -1.1724511617e-04
5.2934166651e+02 4.5670373913e-06
5.3906890265e+02 1.4129970700e-04
5.4892325388e+02 -2.7130031052e-05
5.5889521190e+02 -5.7541773869e-04
5.6897416497e+02 -1.0961429262e-03
5.7914871332e+02 -1.2061317663e-03
5.8940704153e+02 -1.0258031429e-03
5.9973731589e+02 -8.0147997640e-04
6.1012807113e+02 -6.3985482139e-04
6.2056855339e+02 -5.4176330168e-04
6.3104899243e+02 -4.6456036389e-04
6.4156078668e+02 -3.7531499374e-04
6.5209659581e+02 -2.7853297030e-04
6.6265034658e+02 -1.7957223375e-04
6.7321716636e+02 -9.3647206308e-05
6.8379326367e+02 -3.4661114832e-05
6.9437577694e+02 -6.4159605230e-06
7.0496261119e+02 -6.4487481929e-06
7.1555227852e+02 -1.0865611413e-05
7.2614375372e+02 -8.6265244278e-06
7.3673635149e+02 -6.6992789095e-06
7.4732962734e+02 -3.9184892629e-06
7.5792330156e+02 -1.5032147805e-06
7.6851720338e+02 -1.5457119520e-06
7.7911123163e+02 -2.3693834698e-06
7.8970532814e+02 -2.9067288212e-06
8.0029946048e+02 -3.1313094955e-06
8.1089361110e+02 -3.1564345834e-06
8.2148777078e+02 -3.0663945331e-06
8.3208193482e+02 -2.8745563873e-06
8.4267610090e+02 -2.5511474258e-06
8.5327026791e+02 -2.0642737694e-06
8.6386443532e+02 -1.4532577625e-06
8.7445860292e+02 -8.2555829915e-07
8.8505277058e+02 -3.3394206946e-07
8.9564693828e+02 -9.4352574823e-08
9.0624110599e+02 -1.5163183626e-07
9.1683527370e+02 -4.6085654677e-07
9.2742944141e+02 -9.3333066331e-07
9.3802360913e+02 -1.4686480871e-06
9.4861777684e+02 -1.9920070297e-06
9.5921194456e+02 -2.4530325133e-06
9.6980611227e+02 -2.8270029625e-06
9.8040027999e+02 -3.1034891303e-06
9.9099444770e+02 -3.2824800880e-06
1.0015886154e+03 -3.3649929603e-06
1.0121827831e+03 -3.3475619688e-06
1.0227769508e+03 -3.2288784571e-06
1.0333711186e+03 -3.0238070144e-06
1.0439652863e+03 -2.7787665607e-06
1.0545594540e+03 -2.5591031669e-06
1.0651536217e+03 -2.4257659320e-06
1.0757477894e+03 -2.3991171581e-06
1.0863419571e+03 -2.4520082957e-06
1.0969361249e+03 -2.5163855985e-06
1.1075302926e+03 -2.5197053223e-06
1.1181244603e+03 -2.4152339846e-06
1.1287186280e+03 -2.2057884974e-06
1.1393127957e+03 -1.9376000747e-06
1.1499069634e+03 -1.6774017233e-06
1.1605011311e+03 -1.4822503733e-06
1.1710952989e+03 -1.3781799809e-06
1.1816894666e+03 -1.3599222363e-06
1.1922836343e+03 -1.3974957199e-06
1.2028778020e+03 -1.4587766940e-06
1.2134719697e+03 -1.5164125745e-06
1.2240661374e+03 -1.5623870400e-06
1.2346603051e+03 -1.5968939625e-06
1.2452544729e+03 -1.6293333211e-06
1.2558486406e+03 -1.6627404754e-06
1.2664428083e+03 -1.6974285461e-06
1.2770369760e+03 -1.7242945241e-06
1.2876311437e+03 -1.7328728264e-06
1.2982253114e+03 -1.7138369039e-06
1.3088194791e+03 -1.6656597042e-06
1.3194136469e+03 -1.5965288520e-06
1.3300078146e+03 -1.5175966683e-06
1.3406019823e+03 -1.4413483925e-06
1.3511961500e+03 -1.3718012170e-06
1.3617903177e+03 -1.3119391552e-06
1.3723844854e+03 -1.2565696624e-06
1.3829786531e+03 -1.2061950229e-06
1.3935728209e+03 -1.1552764663e-06
1.4041669886e+03 -1.1080352907e-06
1.4147611563e+03 -1.0601400754e-06
1.4253553240e+03 -1.0168906118e-06
1.4359494917e+03 -9.7253011893e-07
1.4465436594e+03 -9.3125673261e-07
1.4571378272e+03 -8.8762449905e-07
1.4677319949e+03 -8.4669927201e-07
1.4783261626e+03 -8.0616030053e-07
1.4889203303e+03 -7.7217497220e-07
1.4995144980e+03 -7.4488243671e-07
1.5101086657e+03 -7.2944398129e-07
1.5207028334e+03 -7.2569653421e-07
1.5312970012e+03 -7.3521861687e-07
1.5418911689e+03 -7.5504313137e-07
1.5524853366e+03 -7.8199838104e-07
1.5630795043e+03 -8.1033326325e-07
1.5736736720e+03 -8.3513997755e-07
1.5842678397e+03 -8.5182814328e-07
1.5948620074e+03 -8.5892633668e-07
1.6054561752e+03 -8.5524992525e-07
1.6160503429e+03 -8.4322259035e-07
1.6266445106e+03 -8.2362479588e-07
1.6372386783e+03 -8.0035014651e-07
1.6478328460e+03 -7.7463825370e-07
1.6584270137e+03 -7.5042106311e-07
1.6690211814e+03 -7.2835980969e-07
1.6796153492e+03 -7.1186935731e-07
1.6902095169e+03 -6.9974456245e-07
1.7008036846e+03 -6.9515836034e-07
1.7113978523e+03 -6.9521141500e-07
1.7219920200e+03 -7.0274701331e-07
1.7325861877e+03 -7.1375384196e-07
1.7431803555e+03 -7.3035352881e-07
1.7537745232e+03 -7.4891535001e-07
1.7643686909e+03 -7.7066469067e-07
1.7749628586e+03 -7.9216119357e-07
1.7855570263e+03 -8.1334729126e-07
1.7961511940e+03 -8.3129193585e-07
1.8067453617e+03 -8.4626978508e-07
1.8173395295e+03 -8.5743366255e-07
1.8279336972e+03 -8.6589746095e-07
1.8385278649e+03 -8.7352594574e-07
1.8491220326e+03 -8.8052203627e-07
1.8597162003e+03 -8.9155856793e-07
1.8703103680e+03 -9.0362139695e-07
1.8809045357e+03 -9.2397161948e-07
1.8914987035e+03 -9.4409579108e-07
1.9020928712e+03 -9.7277254143e-07
1.9126870389e+03 -9.9546636861e-07
1.9232812066e+03 -1.0234220996e-06
1.9338753743e+03 -1.0387985122e-06
1.9444695420e+03 -1.0568095934e-06
1.9550637097e+03 -1.0591949034e-06
1.9656578775e+03 -1.0643099397e-06
1.9762520452e+03 -1.0554187783e-06
1.9868462129e+03 -1.0509210931e-06
1.9974403806e+03 -1.0362294056e-06
2.0080345483e+03 -1.0268897764e-06
2.0186287160e+03 -1.0116656429e-06
2.0292228837e+03 -1.0028348494e-06
2.0398170515e+03 -9.9267881469e-07
2.0504112192e+03 -9.8927076445e-07
2.0610053869e+03 -9.8531379405e-07
2.0715995546e+03 -9.8479603518e-07
2.0821937223e+03 -9.7983958417e-07
2.0927878900e+03 -9.7470776183e-07
2.1033820578e+03 -9.6263940966e-07
2.1139762255e+03 -9.5050622092e-07
2.1245703932e+03 -9.3188537511e-07
2.1351645609e+03 -9.1528250197e-07
2.1457587286e+03 -8.9470694771e-07
2.1563528963e+03 -8.8029863230e-07
2.1669470640e+03 -8.6665453745e-07
2.1775412318e+03 -8.6324493189e-07
2.1881353995e+03 -8.6345039753e-07
2.1987295672e+03 -8.7413779127e-07
2.2093237349e+03 -8.8748599088e-07
2.2199179026e+03 -9.0838070607e-07
2.2305120703e+03 -9.2834302156e-07
2.2411062380e+03 -9.5144205417e-07
2.2517004058e+03 -9.6948054728e-07
2.2622945735e+03 -9.8792469684e-07
2.2728887412e+03 -1.0000060585e-06
2.2834829089e+03 -1.0131593087e-06
2.2940770766e+03 -1.0205399071e-06
2.3046712443e+03 -1.0296246136e-06
2.3152654120e+03 -1.0321888210e-06
2.3258595798e+03 -1.0350723476e-06
2.3364537475e+03 -1.0311096699e-06
2.3470479152e+03 -1.0265084381e-06
2.3576420829e+03 -1.0174803348e-06
2.3682362506e+03 -1.0073897675e-06
2.3788304183e+03 -9.9566768404e-07
2.3894245861e+03 -9.8268546264e-07
2.4000187538e+03 -9.7096013596e-07
2.4106129215e+03 -9.6011490717e-07
2.4212070892e+03 -9.5461658206e-07
2.4318012569e+03 -9.5318767699e-07
2.4423954246e+03 -9.6177388087e-07
2.4529895923e+03 -9.7579560054e-07
2.4635837601e+03 -1.0038472712e-06
2.4741779278e+03 -1.0342083085e-06
2.4847720955e+03 -1.0789552184e-06
2.4953662632e+03 -1.1180557595e-06
2.5059604309e+03 -1.1695696054e-06
2.5165545986e+03 -1.2092346555e-06
2.5271487663e+03 -1.2625844568e-06
2.5377429341e+03 -1.3042040125e-06
2.5483371018e+03 -1.3637269632e-06
2.5589312695e+03 -1.4144684483e-06
2.5695254372e+03 -1.4859058248e-06
2.5801196049e+03 -1.5502940815e-06
2.5907137726e+03 -1.6365205365e-06
2.6013079403e+03 -1.7178845105e-06
2.6119021081e+03 -1.8239479620e-06
2.6224962758e+03 -1.9296884052e-06
2.6330904435e+03 -2.0620128657e-06
2.6436846112e+03 -2.1958614340e-06
2.6542787789e+03 -2.3495617607e-06
2.6648729466e+03 -2.5012186725e-06
2.6754671143e+03 -2.6587294973e-06
2.6860612821e+03 -2.8127431004e-06
2.6966554498e+03 -2.9595827373e-06
2.7072496175e+03 -3.1055969466e-06
2.7178437852e+03 -3.2165182496e-06
2.7284379529e+03 -3.2839893007e-06
