# Two-point auto-correlation R_22 (Cartesian) — case DNS_re250_mr00_11 (MR00), y^+ = 15
# Definition: R_{ij}(Δz; y) = < u_i''(x,y,z) u_j''(x,y,z+Δz) > / < u_i''(x,y,z)^2 >
# Columns: delta_z_plus    R
0.0000000000e+00 1.0000000000e+00
3.5851299881e+00 9.0688259901e-01
7.1702599761e+00 6.7667028047e-01
1.0755389964e+01 4.0554606291e-01
1.4340519952e+01 1.6527626798e-01
1.7925649940e+01 -1.4227947751e-02
2.1510779928e+01 -1.3127929123e-01
2.5095909916e+01 -1.9656887207e-01
2.8681039904e+01 -2.2375528539e-01
3.2266169893e+01 -2.2519897972e-01
3.5851299881e+01 -2.1068268282e-01
3.9436429869e+01 -1.8749350992e-01
4.3021559857e+01 -1.6069131253e-01
4.6606689845e+01 -1.3350844216e-01
5.0191819833e+01 -1.0781942662e-01
5.3776949821e+01 -8.4615152960e-02
5.7362079809e+01 -6.4380095509e-02
6.0947209797e+01 -4.7287067431e-02
6.4532339785e+01 -3.3132429719e-02
6.8117469773e+01 -2.1486993432e-02
7.1702599761e+01 -1.2160715383e-02
7.5287729749e+01 -5.3330403013e-03
7.8872859737e+01 -1.1602473832e-03
8.2457989725e+01 7.5691758328e-04
8.6043119713e+01 1.4557523213e-03
8.9628249701e+01 2.0550250699e-03
9.3213379690e+01 3.1407093659e-03
9.6798509678e+01 4.6436812152e-03
1.0038363967e+02 6.0658827429e-03
1.0396876965e+02 6.8987279401e-03
1.0755389964e+02 7.0113064446e-03
1.1113902963e+02 6.6116882918e-03
1.1472415962e+02 5.8984840946e-03
1.1830928961e+02 4.8044066695e-03
1.2189441959e+02 3.1686957768e-03
1.2547954958e+02 1.0488079678e-03
1.2906467957e+02 -1.2142549729e-03
1.3264980956e+02 -3.1329558494e-03
1.3623493955e+02 -4.2412117286e-03
1.3982006953e+02 -4.1866250485e-03
1.4340519952e+02 -2.8454502505e-03
1.4699032951e+02 -4.7835975090e-04
1.5057545950e+02 2.2738401237e-03
1.5416058949e+02 4.5692316423e-03
1.5774571947e+02 5.6641493201e-03
1.6133084946e+02 5.2626527952e-03
1.6491597945e+02 3.6665363892e-03
1.6850110944e+02 1.6089885047e-03
1.7208623943e+02 -1.5267167122e-04
1.7567136941e+02 -1.2186854345e-03
1.7925649940e+02 -1.5983064440e-03
1.8284162939e+02 -1.5065057376e-03
1.8642675938e+02 -1.2007175874e-03
1.9001188937e+02 -9.3477405762e-04
1.9359701936e+02 -9.6444851575e-04
1.9718214934e+02 -1.5658279233e-03
2.0076727933e+02 -2.8700798031e-03
2.0435240932e+02 -4.6407533183e-03
2.0793753931e+02 -6.3567977698e-03
2.1152266930e+02 -7.4632281604e-03
2.1510779928e+02 -7.5285756749e-03
2.1869292927e+02 -6.3714766554e-03
2.2227805926e+02 -4.1976953547e-03
2.2586318925e+02 -1.5973847834e-03
2.2944831924e+02 7.3726969043e-04
2.3303344922e+02 2.4214960791e-03
2.3661857921e+02 3.4865251714e-03
2.4020370920e+02 4.1159035529e-03
2.4378883919e+02 4.4066760901e-03
2.4737396918e+02 4.4061230897e-03
2.5095909916e+02 4.2515131322e-03
2.5454422915e+02 4.1609933217e-03
2.5812935914e+02 4.3350708047e-03
2.6171448913e+02 4.8570923250e-03
2.6529961912e+02 5.4990473241e-03
2.6888474910e+02 5.7410789058e-03
2.7246987909e+02 5.0925459783e-03
2.7605500908e+02 3.3649464318e-03
2.7964013907e+02 8.0623161722e-04
2.8322526906e+02 -2.0234330293e-03
2.8681039904e+02 -4.4866240734e-03
2.9039552903e+02 -6.0354816761e-03
2.9398065902e+02 -6.4510078865e-03
2.9756578901e+02 -6.0260517509e-03
3.0115091900e+02 -5.3651813475e-03
3.0473604898e+02 -4.8897086575e-03
3.0832117897e+02 -4.4437914812e-03
3.1190630896e+02 -3.4342013253e-03
3.1549143895e+02 -1.4579963256e-03
3.1907656894e+02 1.3089572639e-03
3.2266169893e+02 4.2232897337e-03
3.2624682891e+02 6.5752215649e-03
3.2983195890e+02 8.0363406831e-03
3.3341708889e+02 8.6951981265e-03
3.3700221888e+02 8.7537306385e-03
3.4058734887e+02 8.3183014146e-03
3.4417247885e+02 7.3237751628e-03
3.4775760884e+02 5.6902791469e-03
3.5134273883e+02 3.5893292918e-03
3.5492786882e+02 1.3609879108e-03
3.5851299881e+02 -7.8025997666e-04
3.6209812879e+02 -2.7123897307e-03
3.6568325878e+02 -4.1328547919e-03
3.6926838877e+02 -4.6079388727e-03
3.7285351876e+02 -4.0253269803e-03
3.7643864875e+02 -2.7503199983e-03
3.8002377873e+02 -1.2610561987e-03
3.8360890872e+02 1.5718936203e-04
3.8719403871e+02 1.4172373409e-03
3.9077916870e+02 2.5324524252e-03
3.9436429869e+02 3.4170809117e-03
3.9794942867e+02 3.8380344364e-03
4.0153455866e+02 3.6512075437e-03
4.0511968865e+02 2.9565302959e-03
4.0870481864e+02 2.0333576284e-03
4.1228994863e+02 1.1857580555e-03
4.1587507861e+02 5.9497205922e-04
4.1946020860e+02 2.8232409943e-04
4.2304533859e+02 1.0438992480e-04
4.2663046858e+02 -1.3430301162e-04
4.3021559857e+02 -4.4953392271e-04
4.3380072855e+02 -6.9470581487e-04
4.3738585854e+02 -7.8505047166e-04
4.4097098853e+02 -7.7638264239e-04
4.4455611852e+02 -7.4109850726e-04
4.4814124851e+02 -6.1680961567e-04
4.5172637850e+02 -2.8940232761e-04
4.5531150848e+02 2.3323171127e-04
