# Two-point auto-correlation R_11 (Cartesian) — case DNS_re250_mr00_11 (MR00), y^+ = 15
# Definition: R_{ij}(Δz; y) = < u_i''(x,y,z) u_j''(x,y,z+Δz) > / < u_i''(x,y,z)^2 >
# Columns: delta_z_plus    R
0.0000000000e+00 1.0000000000e+00
3.5851299881e+00 9.6777051367e-01
7.1702599761e+00 8.8194813770e-01
1.0755389964e+01 7.6514376482e-01
1.4340519952e+01 6.3748510918e-01
1.7925649940e+01 5.1213562488e-01
2.1510779928e+01 3.9650081546e-01
2.5095909916e+01 2.9424493005e-01
2.8681039904e+01 2.0675300349e-01
3.2266169893e+01 1.3399533435e-01
3.5851299881e+01 7.5044623289e-02
3.9436429869e+01 2.8475860902e-02
4.3021559857e+01 -7.3568728936e-03
4.6606689845e+01 -3.4126547613e-02
5.0191819833e+01 -5.3407966446e-02
5.3776949821e+01 -6.6637849647e-02
5.7362079809e+01 -7.5123243089e-02
6.0947209797e+01 -8.0013572050e-02
6.4532339785e+01 -8.2244427673e-02
6.8117469773e+01 -8.2566048914e-02
7.1702599761e+01 -8.1590246070e-02
7.5287729749e+01 -7.9767830391e-02
7.8872859737e+01 -7.7379797169e-02
8.2457989725e+01 -7.4576216745e-02
8.6043119713e+01 -7.1454895830e-02
8.9628249701e+01 -6.8167816688e-02
9.3213379690e+01 -6.4944528116e-02
9.6798509678e+01 -6.1999978533e-02
1.0038363967e+02 -5.9443198877e-02
1.0396876965e+02 -5.7279633394e-02
1.0755389964e+02 -5.5472413472e-02
1.1113902963e+02 -5.3977642722e-02
1.1472415962e+02 -5.2737569769e-02
1.1830928961e+02 -5.1687158404e-02
1.2189441959e+02 -5.0768731246e-02
1.2547954958e+02 -4.9912230657e-02
1.2906467957e+02 -4.9028990859e-02
1.3264980956e+02 -4.8053860259e-02
1.3623493955e+02 -4.6976177584e-02
1.3982006953e+02 -4.5818389531e-02
1.4340519952e+02 -4.4615396679e-02
1.4699032951e+02 -4.3412456688e-02
1.5057545950e+02 -4.2251309756e-02
1.5416058949e+02 -4.1165934721e-02
1.5774571947e+02 -4.0189862346e-02
1.6133084946e+02 -3.9345611330e-02
1.6491597945e+02 -3.8641537048e-02
1.6850110944e+02 -3.8070031243e-02
1.7208623943e+02 -3.7598601362e-02
1.7567136941e+02 -3.7176269410e-02
1.7925649940e+02 -3.6757061768e-02
1.8284162939e+02 -3.6310247761e-02
1.8642675938e+02 -3.5810746478e-02
1.9001188937e+02 -3.5225115408e-02
1.9359701936e+02 -3.4525654681e-02
1.9718214934e+02 -3.3719656224e-02
2.0076727933e+02 -3.2840809468e-02
2.0435240932e+02 -3.1902949620e-02
2.0793753931e+02 -3.0877170020e-02
2.1152266930e+02 -2.9727761838e-02
2.1510779928e+02 -2.8465308053e-02
2.1869292927e+02 -2.7137891262e-02
2.2227805926e+02 -2.5772373059e-02
2.2586318925e+02 -2.4375303060e-02
2.2944831924e+02 -2.2964091321e-02
2.3303344922e+02 -2.1556130770e-02
2.3661857921e+02 -2.0172029374e-02
2.4020370920e+02 -1.8877713824e-02
2.4378883919e+02 -1.7796875519e-02
2.4737396918e+02 -1.7050798762e-02
2.5095909916e+02 -1.6696913589e-02
2.5454422915e+02 -1.6720167795e-02
2.5812935914e+02 -1.7034466440e-02
2.6171448913e+02 -1.7500250994e-02
2.6529961912e+02 -1.7953666810e-02
2.6888474910e+02 -1.8227162704e-02
2.7246987909e+02 -1.8188187398e-02
2.7605500908e+02 -1.7787167258e-02
2.7964013907e+02 -1.7084411607e-02
2.8322526906e+02 -1.6222321513e-02
2.8681039904e+02 -1.5355379153e-02
2.9039552903e+02 -1.4596533919e-02
2.9398065902e+02 -1.3994849963e-02
2.9756578901e+02 -1.3525709593e-02
3.0115091900e+02 -1.3084626962e-02
3.0473604898e+02 -1.2519068072e-02
3.0832117897e+02 -1.1702320381e-02
3.1190630896e+02 -1.0599479875e-02
3.1549143895e+02 -9.2891342754e-03
3.1907656894e+02 -7.9367002902e-03
3.2266169893e+02 -6.7269754927e-03
3.2624682891e+02 -5.7847816141e-03
3.2983195890e+02 -5.1493692932e-03
3.3341708889e+02 -4.8027418516e-03
3.3700221888e+02 -4.6913193238e-03
3.4058734887e+02 -4.7468975430e-03
3.4417247885e+02 -4.9189771080e-03
3.4775760884e+02 -5.1946136527e-03
3.5134273883e+02 -5.5770610674e-03
3.5492786882e+02 -6.0678156188e-03
3.5851299881e+02 -6.6852408998e-03
3.6209812879e+02 -7.4633455023e-03
3.6568325878e+02 -8.4224995848e-03
3.6926838877e+02 -9.5387285693e-03
3.7285351876e+02 -1.0724770064e-02
3.7643864875e+02 -1.1829760724e-02
3.8002377873e+02 -1.2677629309e-02
3.8360890872e+02 -1.3138386251e-02
3.8719403871e+02 -1.3160684163e-02
3.9077916870e+02 -1.2764036139e-02
3.9436429869e+02 -1.2016702717e-02
3.9794942867e+02 -1.1017796973e-02
4.0153455866e+02 -9.8841794461e-03
4.0511968865e+02 -8.7070340747e-03
4.0870481864e+02 -7.5131051738e-03
4.1228994863e+02 -6.2828979208e-03
4.1587507861e+02 -5.0057692008e-03
4.1946020860e+02 -3.7284881160e-03
4.2304533859e+02 -2.5634815294e-03
4.2663046858e+02 -1.6221759994e-03
4.3021559857e+02 -9.2840463075e-04
4.3380072855e+02 -4.1877136775e-04
4.3738585854e+02 -1.6622724520e-05
4.4097098853e+02 3.2312832653e-04
4.4455611852e+02 6.3804757273e-04
4.4814124851e+02 9.9187211588e-04
4.5172637850e+02 1.4624741248e-03
4.5531150848e+02 2.0787070778e-03
