# Two-point auto-correlation R_33 (Cartesian) — case DNS_re250_mr00_11 (MR00), y^+ = 15
# Definition: R_{ij}(Δz; y) = < u_i''(x,y,z) u_j''(x,y,z+Δz) > / < u_i''(x,y,z)^2 >
# Columns: delta_z_plus    R
0.0000000000e+00 1.0000000000e+00
3.5851299881e+00 9.7910986811e-01
7.1702599761e+00 9.2172728441e-01
1.0755389964e+01 8.3937035723e-01
1.4340519952e+01 7.4407743660e-01
1.7925649940e+01 6.4532884943e-01
2.1510779928e+01 5.4949897144e-01
2.5095909916e+01 4.6043583815e-01
2.8681039904e+01 3.8016612548e-01
3.2266169893e+01 3.0951767157e-01
3.5851299881e+01 2.4853821755e-01
3.9436429869e+01 1.9679275111e-01
4.3021559857e+01 1.5353708418e-01
4.6606689845e+01 1.1786375963e-01
5.0191819833e+01 8.8790473740e-02
5.3776949821e+01 6.5332660604e-02
5.7362079809e+01 4.6536881847e-02
6.0947209797e+01 3.1523330538e-02
6.4532339785e+01 1.9532380590e-02
6.8117469773e+01 9.9369212089e-03
7.1702599761e+01 2.2208842862e-03
7.5287729749e+01 -4.0367096053e-03
7.8872859737e+01 -9.1583502132e-03
8.2457989725e+01 -1.3380948910e-02
8.6043119713e+01 -1.6876440029e-02
8.9628249701e+01 -1.9791145049e-02
9.3213379690e+01 -2.2255620573e-02
9.6798509678e+01 -2.4381318861e-02
1.0038363967e+02 -2.6256590131e-02
1.0396876965e+02 -2.7954595942e-02
1.0755389964e+02 -2.9527978560e-02
1.1113902963e+02 -3.0992017099e-02
1.1472415962e+02 -3.2340990581e-02
1.1830928961e+02 -3.3559159623e-02
1.2189441959e+02 -3.4626780042e-02
1.2547954958e+02 -3.5522672900e-02
1.2906467957e+02 -3.6230807233e-02
1.3264980956e+02 -3.6731423424e-02
1.3623493955e+02 -3.7000647292e-02
1.3982006953e+02 -3.7022731796e-02
1.4340519952e+02 -3.6811935714e-02
1.4699032951e+02 -3.6432239865e-02
1.5057545950e+02 -3.5995904481e-02
1.5416058949e+02 -3.5624085556e-02
1.5774571947e+02 -3.5399362238e-02
1.6133084946e+02 -3.5344790989e-02
1.6491597945e+02 -3.5422571582e-02
1.6850110944e+02 -3.5561813350e-02
1.7208623943e+02 -3.5693195513e-02
1.7567136941e+02 -3.5761018283e-02
1.7925649940e+02 -3.5731643092e-02
1.8284162939e+02 -3.5601563615e-02
1.8642675938e+02 -3.5389347932e-02
1.9001188937e+02 -3.5126529233e-02
1.9359701936e+02 -3.4843493795e-02
1.9718214934e+02 -3.4543711690e-02
2.0076727933e+02 -3.4198613597e-02
2.0435240932e+02 -3.3756839362e-02
2.0793753931e+02 -3.3155243401e-02
2.1152266930e+02 -3.2345540733e-02
2.1510779928e+02 -3.1322475684e-02
2.1869292927e+02 -3.0127203900e-02
2.2227805926e+02 -2.8831894772e-02
2.2586318925e+02 -2.7515502510e-02
2.2944831924e+02 -2.6243277059e-02
2.3303344922e+02 -2.5056913728e-02
2.3661857921e+02 -2.3961626907e-02
2.4020370920e+02 -2.2922382826e-02
2.4378883919e+02 -2.1888489376e-02
2.4737396918e+02 -2.0829663964e-02
2.5095909916e+02 -1.9752132938e-02
2.5454422915e+02 -1.8679105013e-02
2.5812935914e+02 -1.7632540287e-02
2.6171448913e+02 -1.6626789049e-02
2.6529961912e+02 -1.5667457439e-02
2.6888474910e+02 -1.4752289388e-02
2.7246987909e+02 -1.3883878923e-02
2.7605500908e+02 -1.3071150448e-02
2.7964013907e+02 -1.2314252250e-02
2.8322526906e+02 -1.1595009453e-02
2.8681039904e+02 -1.0878616782e-02
2.9039552903e+02 -1.0128485830e-02
2.9398065902e+02 -9.3136775062e-03
2.9756578901e+02 -8.4082162411e-03
3.0115091900e+02 -7.3954640921e-03
3.0473604898e+02 -6.2881343291e-03
3.0832117897e+02 -5.1453580693e-03
3.1190630896e+02 -4.0622039312e-03
3.1549143895e+02 -3.1405921982e-03
3.1907656894e+02 -2.4539464595e-03
3.2266169893e+02 -2.0393913630e-03
3.2624682891e+02 -1.9141179182e-03
3.2983195890e+02 -2.0729543808e-03
3.3341708889e+02 -2.4856832972e-03
3.3700221888e+02 -3.0949917209e-03
3.4058734887e+02 -3.8271258226e-03
3.4417247885e+02 -4.6111615290e-03
3.4775760884e+02 -5.3948199297e-03
3.5134273883e+02 -6.1478312865e-03
3.5492786882e+02 -6.8510453550e-03
3.5851299881e+02 -7.4943844185e-03
3.6209812879e+02 -8.0852270365e-03
3.6568325878e+02 -8.6439612489e-03
3.6926838877e+02 -9.1907808029e-03
3.7285351876e+02 -9.7347042152e-03
3.7643864875e+02 -1.0266993305e-02
3.8002377873e+02 -1.0772990184e-02
3.8360890872e+02 -1.1233271489e-02
3.8719403871e+02 -1.1614378817e-02
3.9077916870e+02 -1.1871686855e-02
3.9436429869e+02 -1.1964010493e-02
3.9794942867e+02 -1.1871682498e-02
4.0153455866e+02 -1.1595913345e-02
4.0511968865e+02 -1.1177303210e-02
4.0870481864e+02 -1.0685331417e-02
4.1228994863e+02 -1.0202944909e-02
4.1587507861e+02 -9.7898516130e-03
4.1946020860e+02 -9.4464981814e-03
4.2304533859e+02 -9.1259200950e-03
4.2663046858e+02 -8.7797978000e-03
4.3021559857e+02 -8.3909109358e-03
4.3380072855e+02 -7.9680156860e-03
4.3738585854e+02 -7.5235834755e-03
4.4097098853e+02 -7.0593820863e-03
4.4455611852e+02 -6.5567233389e-03
4.4814124851e+02 -5.9758708095e-03
4.5172637850e+02 -5.2713423105e-03
4.5531150848e+02 -4.4171865613e-03
