# Reynolds stress Morkovin's scaling 
# Columns: y_plus    rho w''w''/tau_wall
3.8773702413e-01 1.0600488779e-02
1.1571785444e+00 7.8210642312e-02
1.9272980036e+00 1.8316162540e-01
2.6982779270e+00 3.0590383173e-01
3.4703198979e+00 4.3479468012e-01
4.2436415854e+00 5.6270268569e-01
5.0184737565e+00 6.8583839208e-01
5.7950575092e+00 8.0210581012e-01
6.5736418747e+00 9.1089612640e-01
7.3544818564e+00 1.0120416279e+00
8.1378369110e+00 1.1059230675e+00
8.9239698326e+00 1.1928126268e+00
9.7131459760e+00 1.2731590170e+00
1.0505632749e+01 1.3472028179e+00
1.1301699307e+01 1.4152941710e+00
1.2101616390e+01 1.4776547894e+00
1.2905656257e+01 1.5346415824e+00
1.3714092688e+01 1.5865574885e+00
1.4527201024e+01 1.6338106192e+00
1.5345258226e+01 1.6767525163e+00
1.6168542961e+01 1.7157701682e+00
1.6997335681e+01 1.7511689268e+00
1.7831918720e+01 1.7832345336e+00
1.8672576387e+01 1.8121776278e+00
1.9519595060e+01 1.8381950684e+00
2.0373263283e+01 1.8614655959e+00
2.1233871868e+01 1.8821890132e+00
2.2101713990e+01 1.9005813079e+00
2.2977085288e+01 1.9168720815e+00
2.3860283967e+01 1.9312941543e+00
2.4751610897e+01 1.9440538494e+00
2.5651369717e+01 1.9553273035e+00
2.6559866940e+01 1.9652376239e+00
2.7477412056e+01 1.9738801273e+00
2.8404317634e+01 1.9813148583e+00
2.9340899435e+01 1.9876014241e+00
3.0287476515e+01 1.9927821067e+00
3.1244371336e+01 1.9969130813e+00
3.2211909873e+01 2.0000552859e+00
3.3190421728e+01 2.0023116495e+00
3.4180240242e+01 2.0037974745e+00
3.5181702607e+01 2.0046402795e+00
3.6195149980e+01 2.0049422067e+00
3.7220927603e+01 2.0047961118e+00
3.8259384918e+01 2.0042603362e+00
3.9310875686e+01 2.0033858001e+00
4.0375758108e+01 2.0022137999e+00
4.1454394947e+01 2.0008006164e+00
4.2547153652e+01 1.9991940297e+00
4.3654406483e+01 1.9974310863e+00
4.4776530636e+01 1.9955001285e+00
4.5913908375e+01 1.9933463360e+00
4.7066927159e+01 1.9908852779e+00
4.8235979776e+01 1.9880484801e+00
4.9421464475e+01 1.9847814045e+00
5.0623785105e+01 1.9810373004e+00
5.1843351247e+01 1.9767504018e+00
5.3080578360e+01 1.9718532185e+00
5.4335887919e+01 1.9663216398e+00
5.5609707556e+01 1.9602181754e+00
5.6902471212e+01 1.9536700024e+00
5.8214619280e+01 1.9468328217e+00
5.9546598757e+01 1.9398414399e+00
6.0898863395e+01 1.9327758531e+00
6.2271873857e+01 1.9256472395e+00
6.3666097873e+01 1.9184280024e+00
6.5082010401e+01 1.9111042968e+00
6.6520093784e+01 1.9037074194e+00
6.7980837922e+01 1.8962893587e+00
6.9464740431e+01 1.8888710241e+00
7.0972306819e+01 1.8814322256e+00
7.2504050652e+01 1.8739459086e+00
7.4060493737e+01 1.8663948990e+00
7.5642166290e+01 1.8587301161e+00
7.7249607125e+01 1.8508781298e+00
7.8883363833e+01 1.8428172259e+00
8.0543992970e+01 1.8346341153e+00
8.2232060247e+01 1.8264738517e+00
8.3948140720e+01 1.8183893135e+00
8.5692818992e+01 1.8102935552e+00
8.7466689403e+01 1.8020563609e+00
8.9270356242e+01 1.7935488002e+00
9.1104433945e+01 1.7847023503e+00
9.2969547311e+01 1.7755739982e+00
9.4866331710e+01 1.7662836124e+00
9.6795433299e+01 1.7569065466e+00
9.8757509249e+01 1.7474691793e+00
1.0075322796e+02 1.7380049443e+00
1.0278326929e+02 1.7286452568e+00
1.0484832481e+02 1.7195403648e+00
1.0694909798e+02 1.7106818847e+00
1.0908630446e+02 1.7018908355e+00
1.1126067231e+02 1.6929340986e+00
1.1347294226e+02 1.6836187586e+00
1.1572386793e+02 1.6739134061e+00
1.1801421613e+02 1.6639311914e+00
1.2034476708e+02 1.6538145486e+00
1.2271631472e+02 1.6436248070e+00
1.2512966693e+02 1.6333214120e+00
1.2758564584e+02 1.6229640343e+00
1.3008508813e+02 1.6125834164e+00
1.3262884523e+02 1.6020556078e+00
1.3521778371e+02 1.5912904295e+00
1.3785278552e+02 1.5802297275e+00
1.4053474831e+02 1.5688079640e+00
1.4326458570e+02 1.5569234910e+00
1.4604322764e+02 1.5446869917e+00
1.4887162071e+02 1.5324836286e+00
1.5175072843e+02 1.5205323257e+00
1.5468153159e+02 1.5086820277e+00
1.5766502861e+02 1.4968088748e+00
1.6070223585e+02 1.4851009222e+00
1.6379418795e+02 1.4736972198e+00
1.6694193823e+02 1.4622898834e+00
1.7014655900e+02 1.4506298090e+00
1.7340914194e+02 1.4387501110e+00
1.7673079848e+02 1.4264537248e+00
1.8011266020e+02 1.4136786828e+00
1.8355587914e+02 1.4004190630e+00
1.8706162828e+02 1.3864178209e+00
1.9063110189e+02 1.3713994643e+00
1.9426551594e+02 1.3552191074e+00
1.9796610854e+02 1.3380395737e+00
2.0173414033e+02 1.3200870270e+00
2.0557089493e+02 1.3013541429e+00
2.0947767937e+02 1.2819762147e+00
2.1345582454e+02 1.2621509853e+00
2.1750668562e+02 1.2421338482e+00
2.2163164260e+02 1.2221539146e+00
2.2583210068e+02 1.2023451970e+00
2.3010949078e+02 1.1819701591e+00
2.3446527005e+02 1.1602967718e+00
2.3890092232e+02 1.1374462031e+00
2.4341795865e+02 1.1134771740e+00
2.4801791781e+02 1.0886180135e+00
2.5270236682e+02 1.0632735478e+00
2.5747290150e+02 1.0376560808e+00
2.6233114696e+02 1.0108781243e+00
2.6727875823e+02 9.8260240620e-01
2.7231742076e+02 9.5351976103e-01
2.7744885101e+02 9.2387599335e-01
2.8267479708e+02 8.9411503674e-01
2.8799703921e+02 8.6460781706e-01
2.9341739051e+02 8.3490955684e-01
2.9893769745e+02 8.0479712838e-01
3.0455984059e+02 7.7364165000e-01
3.1028573518e+02 7.4141337237e-01
3.1611733179e+02 7.0874841566e-01
3.2205661702e+02 6.7596216387e-01
3.2810561415e+02 6.4293743564e-01
3.3426638381e+02 6.1011241008e-01
3.4054102473e+02 5.7667792482e-01
3.4693167437e+02 5.4230387134e-01
3.5344050967e+02 5.0761629621e-01
3.6006974768e+02 4.7342849410e-01
3.6682164618e+02 4.3978812871e-01
3.7369850410e+02 4.0633103261e-01
3.8070266166e+02 3.7389094000e-01
3.8783649994e+02 3.4284279408e-01
3.9510243939e+02 3.1289352061e-01
4.0250293658e+02 2.8430716469e-01
4.1004047808e+02 2.5623831221e-01
4.1771756960e+02 2.2914046701e-01
4.2553671823e+02 2.0355608686e-01
4.3350040448e+02 1.7941431364e-01
4.4161104030e+02 1.5688044045e-01
4.4987090866e+02 1.3585550140e-01
4.5828208032e+02 1.1651395461e-01
4.6684630417e+02 9.9086618149e-02
4.7556486928e+02 8.3490888508e-02
4.8443844007e+02 6.9712622854e-02
4.9346687031e+02 5.8135935797e-02
5.0264900663e+02 4.8391391169e-02
5.1198249775e+02 4.0016258502e-02
5.2146362975e+02 3.3019210188e-02
5.3108721016e+02 2.6944982194e-02
5.4084652259e+02 2.1786085503e-02
5.5073336928e+02 1.7551615396e-02
5.6073821057e+02 1.4108807366e-02
5.7085039974e+02 1.1337407097e-02
5.8105849942e+02 9.1046774805e-03
5.9135065524e+02 7.3443886581e-03
6.0171499445e+02 6.0138794205e-03
6.1214001398e+02 4.9944980406e-03
6.2261492451e+02 4.2168529399e-03
6.3312992358e+02 3.5740195559e-03
6.4367638126e+02 3.0604882992e-03
6.5424693300e+02 2.6608112015e-03
6.6483548556e+02 2.3335384185e-03
6.7543715021e+02 2.0560227628e-03
6.8604812299e+02 1.8264754038e-03
6.9666553289e+02 1.6379747684e-03
7.0728727802e+02 1.4804026635e-03
7.1791186556e+02 1.3468954138e-03
7.2853826695e+02 1.2317172502e-03
7.3916579460e+02 1.1306862410e-03
7.4979400256e+02 1.0432385641e-03
7.6042261022e+02 9.6772778109e-04
7.7105144622e+02 9.0189211695e-04
7.8168040906e+02 8.4410576902e-04
7.9230944040e+02 7.9311684512e-04
8.0293850768e+02 7.4794024106e-04
8.1356759330e+02 7.0778720456e-04
8.2419668801e+02 6.7200259711e-04
8.3482578710e+02 6.4005501649e-04
8.4545488823e+02 6.1149326833e-04
8.5608399030e+02 5.8594976200e-04
8.6671309277e+02 5.6309632126e-04
8.7734219542e+02 5.4265601925e-04
8.8797129815e+02 5.2436222612e-04
8.9860040090e+02 5.0798651920e-04
9.0922950367e+02 4.9330146560e-04
9.1985860644e+02 4.8012035911e-04
9.3048770921e+02 4.6825675972e-04
9.4111681199e+02 4.5756959563e-04
9.5174591476e+02 4.4791774519e-04
9.6237501753e+02 4.3920435860e-04
9.7300412031e+02 4.3132869154e-04
9.8363322308e+02 4.2422506215e-04
9.9426232586e+02 4.1781925866e-04
1.0048914286e+03 4.1206117200e-04
1.0155205314e+03 4.0689176326e-04
1.0261496342e+03 4.0226448730e-04
1.0367787369e+03 3.9812498905e-04
1.0474078397e+03 3.9442146712e-04
1.0580369425e+03 3.9110133843e-04
1.0686660453e+03 3.8811430771e-04
1.0792951480e+03 3.8542348926e-04
1.0899242508e+03 3.8299770333e-04
1.1005533536e+03 3.8082660698e-04
1.1111824564e+03 3.7889743363e-04
1.1218115591e+03 3.7721297287e-04
1.1324406619e+03 3.7575767044e-04
1.1430697647e+03 3.7452738141e-04
1.1536988675e+03 3.7349201947e-04
1.1643279702e+03 3.7264303677e-04
1.1749570730e+03 3.7194657621e-04
1.1855861758e+03 3.7140513773e-04
1.1962152786e+03 3.7098986372e-04
1.2068443813e+03 3.7071911782e-04
1.2174734841e+03 3.7056456020e-04
1.2281025869e+03 3.7055432148e-04
1.2387316896e+03 3.7065175791e-04
1.2493607924e+03 3.7088997486e-04
1.2599898952e+03 3.7122215959e-04
1.2706189980e+03 3.7168809011e-04
1.2812481007e+03 3.7223144163e-04
1.2918772035e+03 3.7289642561e-04
1.3025063063e+03 3.7361260694e-04
1.3131354091e+03 3.7442576141e-04
1.3237645118e+03 3.7525427735e-04
1.3343936146e+03 3.7615369169e-04
1.3450227174e+03 3.7704078501e-04
1.3556518202e+03 3.7798635396e-04
1.3662809229e+03 3.7890742623e-04
1.3769100257e+03 3.7989094539e-04
1.3875391285e+03 3.8085418624e-04
1.3981682312e+03 3.8189595931e-04
1.4087973340e+03 3.8292291776e-04
1.4194264368e+03 3.8403362908e-04
1.4300555396e+03 3.8511489271e-04
1.4406846423e+03 3.8626415117e-04
1.4513137451e+03 3.8735271346e-04
1.4619428479e+03 3.8848692826e-04
1.4725719507e+03 3.8953175759e-04
1.4832010534e+03 3.9060838314e-04
1.4938301562e+03 3.9157578514e-04
1.5044592590e+03 3.9256651128e-04
1.5150883618e+03 3.9343157393e-04
1.5257174645e+03 3.9431281224e-04
1.5363465673e+03 3.9505475642e-04
1.5469756701e+03 3.9580861082e-04
1.5576047728e+03 3.9641583906e-04
1.5682338756e+03 3.9703893028e-04
1.5788629784e+03 3.9751954732e-04
1.5894920812e+03 3.9803037471e-04
1.6001211839e+03 3.9841130020e-04
1.6107502867e+03 3.9883881660e-04
1.6213793895e+03 3.9914610673e-04
1.6320084923e+03 3.9950943879e-04
1.6426375950e+03 3.9975746825e-04
1.6532666978e+03 4.0007046813e-04
1.6638958006e+03 4.0027748256e-04
1.6745249034e+03 4.0056458924e-04
1.6851540061e+03 4.0076023558e-04
1.6957831089e+03 4.0105285500e-04
1.7064122117e+03 4.0126481571e-04
1.7170413145e+03 4.0158140797e-04
1.7276704172e+03 4.0181436666e-04
1.7382995200e+03 4.0214529842e-04
1.7489286228e+03 4.0237788993e-04
1.7595577255e+03 4.0269795505e-04
1.7701868283e+03 4.0290866127e-04
1.7808159311e+03 4.0320813330e-04
1.7914450339e+03 4.0339902925e-04
1.8020741366e+03 4.0368961158e-04
1.8127032394e+03 4.0387403820e-04
1.8233323422e+03 4.0416753617e-04
1.8339614450e+03 4.0435299828e-04
1.8445905477e+03 4.0465425031e-04
1.8552196505e+03 4.0484231523e-04
1.8658487533e+03 4.0515008802e-04
1.8764778561e+03 4.0533569203e-04
1.8871069588e+03 4.0564096305e-04
1.8977360616e+03 4.0581104809e-04
1.9083651644e+03 4.0609744236e-04
1.9189942671e+03 4.0623603998e-04
1.9296233699e+03 4.0649033396e-04
1.9402524727e+03 4.0659270678e-04
1.9508815755e+03 4.0681883495e-04
1.9615106782e+03 4.0690061828e-04
1.9721397810e+03 4.0712017433e-04
1.9827688838e+03 4.0720688812e-04
1.9933979866e+03 4.0744229620e-04
2.0040270893e+03 4.0755324450e-04
2.0146561921e+03 4.0781700443e-04
2.0252852949e+03 4.0795695620e-04
2.0359143977e+03 4.0824051172e-04
2.0465435004e+03 4.0838533213e-04
2.0571726032e+03 4.0864779297e-04
2.0678017060e+03 4.0874675425e-04
2.0784308088e+03 4.0893833875e-04
2.0890599115e+03 4.0895587005e-04
2.0996890143e+03 4.0906507526e-04
2.1103181171e+03 4.0901518214e-04
2.1209472198e+03 4.0908073157e-04
2.1315763226e+03 4.0901762086e-04
2.1422054254e+03 4.0910880903e-04
2.1528345282e+03 4.0910660831e-04
2.1634636309e+03 4.0930706246e-04
2.1740927337e+03 4.0944758372e-04
2.1847218365e+03 4.0984565631e-04
2.1953509393e+03 4.1021254357e-04
2.2059800420e+03 4.1089899580e-04
2.2166091448e+03 4.1158087136e-04
2.2272382476e+03 4.1265819835e-04
2.2378673504e+03 4.1376473475e-04
2.2484964531e+03 4.1536553573e-04
2.2591255559e+03 4.1703826425e-04
2.2697546587e+03 4.1931925311e-04
2.2803837614e+03 4.2170905505e-04
2.2910128642e+03 4.2482177102e-04
2.3016419670e+03 4.2806498521e-04
2.3122710698e+03 4.3213632683e-04
2.3229001725e+03 4.3633391662e-04
2.3335292753e+03 4.4143564920e-04
2.3441583781e+03 4.4662028771e-04
2.3547874809e+03 4.5274277154e-04
2.3654165836e+03 4.5887211006e-04
2.3760456864e+03 4.6593815850e-04
2.3866747892e+03 4.7292615014e-04
2.3973038920e+03 4.8082939104e-04
2.4079329947e+03 4.8858467048e-04
2.4185620975e+03 4.9722724326e-04
2.4291912003e+03 5.0569471699e-04
2.4398203030e+03 5.1503767769e-04
2.4504494058e+03 5.2425428752e-04
2.4610785086e+03 5.3437096975e-04
2.4717076114e+03 5.4450566126e-04
2.4823367141e+03 5.5560390406e-04
2.4929658169e+03 5.6695979475e-04
2.5035949197e+03 5.7936743894e-04
2.5142240225e+03 5.9234889983e-04
2.5248531252e+03 6.0646636503e-04
2.5354822280e+03 6.2151810415e-04
2.5461113308e+03 6.3775483039e-04
2.5567404336e+03 6.5529495029e-04
2.5673695363e+03 6.7400244183e-04
2.5779986391e+03 6.9433970244e-04
2.5886277419e+03 7.1571775128e-04
2.5992568447e+03 7.3893678714e-04
2.6098859474e+03 7.6292167541e-04
2.6205150502e+03 7.8875423066e-04
2.6311441530e+03 8.1488880646e-04
2.6417732557e+03 8.4253145373e-04
2.6524023585e+03 8.6976259670e-04
2.6630314613e+03 8.9761014023e-04
2.6736605641e+03 9.2402711566e-04
2.6842896668e+03 9.4939806077e-04
2.6949187696e+03 9.7205036986e-04
2.7055478724e+03 9.9119343071e-04
2.7161769752e+03 1.0064088576e-03
2.7268060779e+03 1.0154775856e-03
2.7374351807e+03 1.0212075343e-03
