# Reynolds stress Morkovin's scaling 
# Columns: y_plus    rho u''w''/tau_wall
3.8773702413e-01 2.0841961440e-03
1.1571785444e+00 2.0833857486e-02
1.9272980036e+00 6.1800232688e-02
2.6982779270e+00 1.2537238528e-01
3.4703198979e+00 2.0807549214e-01
4.2436415854e+00 3.0351625288e-01
5.0184737565e+00 4.0407918161e-01
5.7950575092e+00 5.0267529949e-01
6.5736418747e+00 5.9372738324e-01
7.3544818564e+00 6.7355809344e-01
8.1378369110e+00 7.4021663297e-01
8.9239698326e+00 7.9316904164e-01
9.7131459760e+00 8.3286566409e-01
1.0505632749e+01 8.6039636428e-01
1.1301699307e+01 8.7716705509e-01
1.2101616390e+01 8.8471995806e-01
1.2905656257e+01 8.8459298856e-01
1.3714092688e+01 8.7825622804e-01
1.4527201024e+01 8.6703456718e-01
1.5345258226e+01 8.5207483869e-01
1.6168542961e+01 8.3431635198e-01
1.6997335681e+01 8.1450753492e-01
1.7831918720e+01 7.9322616389e-01
1.8672576387e+01 7.7091570658e-01
1.9519595060e+01 7.4791579748e-01
2.0373263283e+01 7.2450081422e-01
2.1233871868e+01 7.0090878008e-01
2.2101713990e+01 6.7735106680e-01
2.2977085288e+01 6.5401041593e-01
2.3860283967e+01 6.3102883503e-01
2.4751610897e+01 6.0850044724e-01
2.5651369717e+01 5.8646732564e-01
2.6559866940e+01 5.6494129295e-01
2.7477412056e+01 5.4392124997e-01
2.8404317634e+01 5.2341889288e-01
2.9340899435e+01 5.0346765707e-01
3.0287476515e+01 4.8413371041e-01
3.1244371336e+01 4.6549491729e-01
3.2211909873e+01 4.4762260330e-01
3.3190421728e+01 4.3055346832e-01
3.4180240242e+01 4.1429248150e-01
3.5181702607e+01 3.9881863761e-01
3.6195149980e+01 3.8411389140e-01
3.7220927603e+01 3.7016543096e-01
3.8259384918e+01 3.5696601141e-01
3.9310875686e+01 3.4449739099e-01
4.0375758108e+01 3.3273565855e-01
4.1454394947e+01 3.2164079221e-01
4.2547153652e+01 3.1116726619e-01
4.3654406483e+01 3.0127146299e-01
4.4776530636e+01 2.9192693362e-01
4.5913908375e+01 2.8310450097e-01
4.7066927159e+01 2.7476919935e-01
4.8235979776e+01 2.6688442899e-01
4.9421464475e+01 2.5942038030e-01
5.0623785105e+01 2.5233567332e-01
5.1843351247e+01 2.4557925791e-01
5.3080578360e+01 2.3909657277e-01
5.4335887919e+01 2.3285278028e-01
5.5609707556e+01 2.2684368909e-01
5.6902471212e+01 2.2108639501e-01
5.8214619280e+01 2.1556616334e-01
5.9546598757e+01 2.1022402064e-01
6.0898863395e+01 2.0498502560e-01
6.2271873857e+01 1.9980284439e-01
6.3666097873e+01 1.9466295109e-01
6.5082010401e+01 1.8957500569e-01
6.6520093784e+01 1.8457651492e-01
6.7980837922e+01 1.7971731849e-01
6.9464740431e+01 1.7502214397e-01
7.0972306819e+01 1.7050144404e-01
7.2504050652e+01 1.6616577737e-01
7.4060493737e+01 1.6202679981e-01
7.5642166290e+01 1.5810528610e-01
7.7249607125e+01 1.5442949337e-01
7.8883363833e+01 1.5097949363e-01
8.0543992970e+01 1.4764888617e-01
8.2232060247e+01 1.4430622020e-01
8.3948140720e+01 1.4092067128e-01
8.5692818992e+01 1.3758301716e-01
8.7466689403e+01 1.3440471915e-01
8.9270356242e+01 1.3141518488e-01
9.1104433945e+01 1.2856884606e-01
9.2969547311e+01 1.2581336973e-01
9.4866331710e+01 1.2313629120e-01
9.6795433299e+01 1.2051095310e-01
9.8757509249e+01 1.1792009095e-01
1.0075322796e+02 1.1545344222e-01
1.0278326929e+02 1.1327022682e-01
1.0484832481e+02 1.1145713299e-01
1.0694909798e+02 1.0991105971e-01
1.0908630446e+02 1.0842426384e-01
1.1126067231e+02 1.0684491090e-01
1.1347294226e+02 1.0515960057e-01
1.1572386793e+02 1.0342415093e-01
1.1801421613e+02 1.0162842686e-01
1.2034476708e+02 9.9734993152e-02
1.2271631472e+02 9.7756176160e-02
1.2512966693e+02 9.5805220374e-02
1.2758564584e+02 9.4029755886e-02
1.3008508813e+02 9.2511336551e-02
1.3262884523e+02 9.1174051944e-02
1.3521778371e+02 8.9813762781e-02
1.3785278552e+02 8.8207307043e-02
1.4053474831e+02 8.6292985668e-02
1.4326458570e+02 8.4270766016e-02
1.4604322764e+02 8.2353249540e-02
1.4887162071e+02 8.0535643388e-02
1.5175072843e+02 7.8730088672e-02
1.5468153159e+02 7.6954498459e-02
1.5766502861e+02 7.5295475051e-02
1.6070223585e+02 7.3828346825e-02
1.6379418795e+02 7.2568508016e-02
1.6694193823e+02 7.1324531038e-02
1.7014655900e+02 6.9988169704e-02
1.7340914194e+02 6.8621768936e-02
1.7673079848e+02 6.7162012947e-02
1.8011266020e+02 6.5549203651e-02
1.8355587914e+02 6.3722302397e-02
1.8706162828e+02 6.1607143203e-02
1.9063110189e+02 5.9361819047e-02
1.9426551594e+02 5.7052675300e-02
1.9796610854e+02 5.4868457325e-02
2.0173414033e+02 5.3062643518e-02
2.0557089493e+02 5.1663870225e-02
2.0947767937e+02 5.0146458179e-02
2.1345582454e+02 4.8025021483e-02
2.1750668562e+02 4.5258228742e-02
2.2163164260e+02 4.2425728846e-02
2.2583210068e+02 4.0351578967e-02
2.3010949078e+02 3.8956794738e-02
2.3446527005e+02 3.7663799540e-02
2.3890092232e+02 3.6188083530e-02
2.4341795865e+02 3.4274689329e-02
2.4801791781e+02 3.2077220386e-02
2.5270236682e+02 3.0191353589e-02
2.5747290150e+02 2.8781010438e-02
2.6233114696e+02 2.7401227079e-02
2.6727875823e+02 2.5924657706e-02
2.7231742076e+02 2.4425611083e-02
2.7744885101e+02 2.2790369684e-02
2.8267479708e+02 2.1244187295e-02
2.8799703921e+02 2.0130026566e-02
2.9341739051e+02 1.9244210086e-02
2.9893769745e+02 1.8303991012e-02
3.0455984059e+02 1.7222075187e-02
3.1028573518e+02 1.6325349641e-02
3.1611733179e+02 1.6078605583e-02
3.2205661702e+02 1.6339212938e-02
3.2810561415e+02 1.6557109445e-02
3.3426638381e+02 1.7087897471e-02
3.4054102473e+02 1.7765898331e-02
3.4693167437e+02 1.7849556610e-02
3.5344050967e+02 1.7361416237e-02
3.6006974768e+02 1.6194448559e-02
3.6682164618e+02 1.4854301376e-02
3.7369850410e+02 1.3718148674e-02
3.8070266166e+02 1.2463891848e-02
3.8783649994e+02 1.1213038303e-02
3.9510243939e+02 1.0284853042e-02
4.0250293658e+02 9.6754484498e-03
4.1004047808e+02 9.0839242734e-03
4.1771756960e+02 8.3578023078e-03
4.2553671823e+02 7.7625220480e-03
4.3350040448e+02 7.1535623382e-03
4.4161104030e+02 6.2960752579e-03
4.4987090866e+02 5.2581946892e-03
4.5828208032e+02 4.1046805146e-03
4.6684630417e+02 2.9416137045e-03
4.7556486928e+02 1.9786058859e-03
4.8443844007e+02 1.2996602763e-03
4.9346687031e+02 1.0011032075e-03
5.0264900663e+02 7.8416782335e-04
5.1198249775e+02 5.2512452557e-04
5.2146362975e+02 4.4761432779e-04
5.3108721016e+02 5.3018243710e-04
5.4084652259e+02 5.4378871553e-04
5.5073336928e+02 4.4013817287e-04
5.6073821057e+02 3.0231345956e-04
5.7085039974e+02 1.7016449499e-04
5.8105849942e+02 8.2400229438e-05
5.9135065524e+02 2.8884878797e-05
6.0171499445e+02 1.0105207438e-05
6.1214001398e+02 2.9914445072e-05
6.2261492451e+02 5.0656231779e-05
6.3312992358e+02 4.2527385273e-05
6.4367638126e+02 2.6338592422e-05
6.5424693300e+02 1.1992453707e-05
6.6483548556e+02 -3.3326306532e-06
6.7543715021e+02 -9.5837080504e-06
6.8604812299e+02 -9.2952709461e-06
6.9666553289e+02 -8.1619483671e-06
7.0728727802e+02 -6.9040173702e-06
7.1791186556e+02 -6.4701549589e-06
7.2853826695e+02 -7.9550117015e-06
7.3916579460e+02 -1.0694038028e-05
7.4979400256e+02 -1.2668873917e-05
7.6042261022e+02 -1.3809448553e-05
7.7105144622e+02 -1.4667732745e-05
7.8168040906e+02 -1.5390995437e-05
7.9230944040e+02 -1.6016235286e-05
8.0293850768e+02 -1.6619746012e-05
8.1356759330e+02 -1.7241296347e-05
8.2419668801e+02 -1.7925496887e-05
8.3482578710e+02 -1.8672036747e-05
8.4545488823e+02 -1.9477036728e-05
8.5608399030e+02 -2.0305227759e-05
8.6671309277e+02 -2.1134003155e-05
8.7734219542e+02 -2.1927886894e-05
8.8797129815e+02 -2.2677650186e-05
8.9860040090e+02 -2.3367701425e-05
9.0922950367e+02 -2.4006227881e-05
9.1985860644e+02 -2.4590181241e-05
9.3048770921e+02 -2.5130296433e-05
9.4111681199e+02 -2.5626087192e-05
9.5174591476e+02 -2.6088574499e-05
9.6237501753e+02 -2.6520914930e-05
9.7300412031e+02 -2.6936888212e-05
9.8363322308e+02 -2.7339839767e-05
9.9426232586e+02 -2.7739807408e-05
1.0048914286e+03 -2.8131167794e-05
1.0155205314e+03 -2.8513521416e-05
1.0261496342e+03 -2.8872040947e-05
1.0367787369e+03 -2.9203056407e-05
1.0474078397e+03 -2.9496063892e-05
1.0580369425e+03 -2.9757123159e-05
1.0686660453e+03 -2.9988461574e-05
1.0792951480e+03 -3.0205054295e-05
1.0899242508e+03 -3.0412741764e-05
1.1005533536e+03 -3.0621298418e-05
1.1111824564e+03 -3.0825904821e-05
1.1218115591e+03 -3.1024016797e-05
1.1324406619e+03 -3.1201467650e-05
1.1430697647e+03 -3.1351902393e-05
1.1536988675e+03 -3.1463223170e-05
1.1643279702e+03 -3.1537939139e-05
1.1749570730e+03 -3.1578215818e-05
1.1855861758e+03 -3.1601887964e-05
1.1962152786e+03 -3.1621321239e-05
1.2068443813e+03 -3.1656188326e-05
1.2174734841e+03 -3.1711095389e-05
1.2281025869e+03 -3.1796029362e-05
1.2387316896e+03 -3.1903217327e-05
1.2493607924e+03 -3.2037183615e-05
1.2599898952e+03 -3.2182701094e-05
1.2706189980e+03 -3.2342667054e-05
1.2812481007e+03 -3.2495146808e-05
1.2918772035e+03 -3.2641660750e-05
1.3025063063e+03 -3.2756461155e-05
1.3131354091e+03 -3.2845972182e-05
1.3237645118e+03 -3.2890469981e-05
1.3343936146e+03 -3.2911480536e-05
1.3450227174e+03 -3.2901679963e-05
1.3556518202e+03 -3.2894609719e-05
1.3662809229e+03 -3.2883239134e-05
1.3769100257e+03 -3.2896998749e-05
1.3875391285e+03 -3.2918899797e-05
1.3981682312e+03 -3.2972052955e-05
1.4087973340e+03 -3.3034931590e-05
1.4194264368e+03 -3.3129896007e-05
1.4300555396e+03 -3.3233768558e-05
1.4406846423e+03 -3.3366668628e-05
1.4513137451e+03 -3.3501104773e-05
1.4619428479e+03 -3.3654536714e-05
1.4725719507e+03 -3.3797392799e-05
1.4832010534e+03 -3.3948303442e-05
1.4938301562e+03 -3.4078535165e-05
1.5044592590e+03 -3.4210272018e-05
1.5150883618e+03 -3.4317453741e-05
1.5257174645e+03 -3.4426990514e-05
1.5363465673e+03 -3.4514878698e-05
1.5469756701e+03 -3.4610460362e-05
1.5576047728e+03 -3.4689136246e-05
1.5682338756e+03 -3.4780471311e-05
1.5788629784e+03 -3.4858116796e-05
1.5894920812e+03 -3.4951527863e-05
1.6001211839e+03 -3.5034525253e-05
1.6107502867e+03 -3.5138928500e-05
1.6213793895e+03 -3.5242312496e-05
1.6320084923e+03 -3.5377064245e-05
1.6426375950e+03 -3.5520091732e-05
1.6532666978e+03 -3.5693688226e-05
1.6638958006e+03 -3.5867936119e-05
1.6745249034e+03 -3.6052410816e-05
1.6851540061e+03 -3.6216311554e-05
1.6957831089e+03 -3.6364857033e-05
1.7064122117e+03 -3.6475045079e-05
1.7170413145e+03 -3.6555945986e-05
1.7276704172e+03 -3.6596346072e-05
1.7382995200e+03 -3.6613336962e-05
1.7489286228e+03 -3.6604903197e-05
1.7595577255e+03 -3.6593622371e-05
1.7701868283e+03 -3.6577016875e-05
1.7808159311e+03 -3.6575794719e-05
1.7914450339e+03 -3.6577728042e-05
1.8020741366e+03 -3.6599859078e-05
1.8127032394e+03 -3.6620539475e-05
1.8233323422e+03 -3.6658796667e-05
1.8339614450e+03 -3.6687599169e-05
1.8445905477e+03 -3.6730185351e-05
1.8552196505e+03 -3.6753433213e-05
1.8658487533e+03 -3.6783156462e-05
1.8764778561e+03 -3.6782027748e-05
1.8871069588e+03 -3.6782181145e-05
1.8977360616e+03 -3.6747576767e-05
1.9083651644e+03 -3.6718736023e-05
1.9189942671e+03 -3.6660409738e-05
1.9296233699e+03 -3.6618512431e-05
1.9402524727e+03 -3.6555790625e-05
1.9508815755e+03 -3.6521023014e-05
1.9615106782e+03 -3.6473180935e-05
1.9721397810e+03 -3.6462504982e-05
1.9827688838e+03 -3.6442557187e-05
1.9933979866e+03 -3.6463706648e-05
2.0040270893e+03 -3.6470966279e-05
2.0146561921e+03 -3.6513450986e-05
2.0252852949e+03 -3.6526761098e-05
2.0359143977e+03 -3.6562581345e-05
2.0465435004e+03 -3.6552027771e-05
2.0571726032e+03 -3.6554738844e-05
2.0678017060e+03 -3.6500479516e-05
2.0784308088e+03 -3.6458171714e-05
2.0890599115e+03 -3.6357578615e-05
2.0996890143e+03 -3.6277407454e-05
2.1103181171e+03 -3.6147311125e-05
2.1209472198e+03 -3.6051528680e-05
2.1315763226e+03 -3.5915944178e-05
2.1422054254e+03 -3.5825165359e-05
2.1528345282e+03 -3.5702207957e-05
2.1634636309e+03 -3.5630806546e-05
2.1740927337e+03 -3.5533942707e-05
2.1847218365e+03 -3.5491817664e-05
2.1953509393e+03 -3.5429198739e-05
2.2059800420e+03 -3.5420932259e-05
2.2166091448e+03 -3.5397266463e-05
2.2272382476e+03 -3.5427576391e-05
2.2378673504e+03 -3.5450720462e-05
2.2484964531e+03 -3.5529520257e-05
2.2591255559e+03 -3.5611746768e-05
2.2697546587e+03 -3.5752995844e-05
2.2803837614e+03 -3.5910755640e-05
2.2910128642e+03 -3.6136369616e-05
2.3016419670e+03 -3.6395472991e-05
2.3122710698e+03 -3.6734799179e-05
2.3229001725e+03 -3.7121400237e-05
2.3335292753e+03 -3.7598171270e-05
2.3441583781e+03 -3.8130979044e-05
2.3547874809e+03 -3.8763021070e-05
2.3654165836e+03 -3.9455595274e-05
2.3760456864e+03 -4.0251655635e-05
2.3866747892e+03 -4.1100918014e-05
2.3973038920e+03 -4.2044875157e-05
2.4079329947e+03 -4.3019227501e-05
2.4185620975e+03 -4.4067968566e-05
2.4291912003e+03 -4.5117075300e-05
2.4398203030e+03 -4.6217386236e-05
2.4504494058e+03 -4.7291959416e-05
2.4610785086e+03 -4.8400834682e-05
2.4717076114e+03 -4.9475293606e-05
2.4823367141e+03 -5.0584560031e-05
2.4929658169e+03 -5.1677597700e-05
2.5035949197e+03 -5.2822617229e-05
2.5142240225e+03 -5.3988651808e-05
2.5248531252e+03 -5.5227772487e-05
2.5354822280e+03 -5.6531927043e-05
2.5461113308e+03 -5.7926813277e-05
2.5567404336e+03 -5.9432266224e-05
2.5673695363e+03 -6.1040683629e-05
2.5779986391e+03 -6.2799937554e-05
2.5886277419e+03 -6.4661368667e-05
2.5992568447e+03 -6.6694728200e-05
2.6098859474e+03 -6.8807234195e-05
2.6205150502e+03 -7.1082603494e-05
2.6311441530e+03 -7.3389851220e-05
2.6417732557e+03 -7.5813478496e-05
2.6524023585e+03 -7.8197808831e-05
2.6630314613e+03 -8.0604672988e-05
2.6736605641e+03 -8.2878451903e-05
2.6842896668e+03 -8.5026460345e-05
2.6949187696e+03 -8.6934806450e-05
2.7055478724e+03 -8.8520767848e-05
2.7161769752e+03 -8.9773483288e-05
2.7268060779e+03 -9.0504297311e-05
2.7374351807e+03 -9.0951079451e-05
