# Reynolds stress Morkovin's scaling 
# Columns: y_plus    rho u''u''/tau_wall
3.8773702413e-01 2.4508836614e-02
1.1571785444e+00 2.1659633531e-01
1.9272980036e+00 5.9260414031e-01
2.6982779270e+00 1.1353542073e+00
3.4703198979e+00 1.8105320992e+00
4.2436415854e+00 2.5691341983e+00
5.0184737565e+00 3.3571818716e+00
5.7950575092e+00 4.1258085238e+00
6.5736418747e+00 4.8378871960e+00
7.3544818564e+00 5.4696794834e+00
8.1378369110e+00 6.0095201334e+00
8.9239698326e+00 6.4547607923e+00
9.7131459760e+00 6.8089667297e+00
1.0505632749e+01 7.0794006293e+00
1.1301699307e+01 7.2753605798e+00
1.2101616390e+01 7.4068559058e+00
1.2905656257e+01 7.4837863667e+00
1.3714092688e+01 7.5153100694e+00
1.4527201024e+01 7.5095448367e+00
1.5345258226e+01 7.4734519831e+00
1.6168542961e+01 7.4128957531e+00
1.6997335681e+01 7.3327901679e+00
1.7831918720e+01 7.2372616403e+00
1.8672576387e+01 7.1298135095e+00
1.9519595060e+01 7.0134091842e+00
2.0373263283e+01 6.8905468229e+00
2.1233871868e+01 6.7632965383e+00
2.2101713990e+01 6.6333909249e+00
2.2977085288e+01 6.5022769886e+00
2.3860283967e+01 6.3711632545e+00
2.4751610897e+01 6.2410005548e+00
2.5651369717e+01 6.1124803667e+00
2.6559866940e+01 5.9860607033e+00
2.7477412056e+01 5.8620607090e+00
2.8404317634e+01 5.7407623613e+00
2.9340899435e+01 5.6224585879e+00
3.0287476515e+01 5.5074320199e+00
3.1244371336e+01 5.3958912086e+00
3.2211909873e+01 5.2879332701e+00
3.3190421728e+01 5.1835385309e+00
3.4180240242e+01 5.0826475745e+00
3.5181702607e+01 4.9852191916e+00
3.6195149980e+01 4.8912782088e+00
3.7220927603e+01 4.8008863156e+00
3.8259384918e+01 4.7141264466e+00
3.9310875686e+01 4.6310356468e+00
4.0375758108e+01 4.5515780184e+00
4.1454394947e+01 4.4756036840e+00
4.2547153652e+01 4.4028978169e+00
4.3654406483e+01 4.3332082812e+00
4.4776530636e+01 4.2663343907e+00
4.5913908375e+01 4.2021456999e+00
4.7066927159e+01 4.1405934266e+00
4.8235979776e+01 4.0816232114e+00
4.9421464475e+01 4.0251420704e+00
5.0623785105e+01 3.9710125704e+00
5.1843351247e+01 3.9191501129e+00
5.3080578360e+01 3.8695279792e+00
5.4335887919e+01 3.8221585435e+00
5.5609707556e+01 3.7769806061e+00
5.6902471212e+01 3.7338048934e+00
5.8214619280e+01 3.6923111855e+00
5.9546598757e+01 3.6521994082e+00
6.0898863395e+01 3.6132711599e+00
6.2271873857e+01 3.5754625516e+00
6.3666097873e+01 3.5387759288e+00
6.5082010401e+01 3.5032551731e+00
6.6520093784e+01 3.4689121533e+00
6.7980837922e+01 3.4357143106e+00
6.9464740431e+01 3.4035744546e+00
7.0972306819e+01 3.3724089122e+00
7.2504050652e+01 3.3421546444e+00
7.4060493737e+01 3.3128072949e+00
7.5642166290e+01 3.2843472015e+00
7.7249607125e+01 3.2566609202e+00
7.8883363833e+01 3.2295340689e+00
8.0543992970e+01 3.2028023239e+00
8.2232060247e+01 3.1764377091e+00
8.3948140720e+01 3.1505934818e+00
8.5692818992e+01 3.1254280858e+00
8.7466689403e+01 3.1009699919e+00
8.9270356242e+01 3.0771618729e+00
9.1104433945e+01 3.0539601015e+00
9.2969547311e+01 3.0312941815e+00
9.4866331710e+01 3.0090319918e+00
9.6795433299e+01 2.9871032354e+00
9.8757509249e+01 2.9655284676e+00
1.0075322796e+02 2.9442113701e+00
1.0278326929e+02 2.9229733154e+00
1.0484832481e+02 2.9016380475e+00
1.0694909798e+02 2.8800900529e+00
1.0908630446e+02 2.8583992531e+00
1.1126067231e+02 2.8366637049e+00
1.1347294226e+02 2.8148248916e+00
1.1572386793e+02 2.7928723788e+00
1.1801421613e+02 2.7708323290e+00
1.2034476708e+02 2.7487793171e+00
1.2271631472e+02 2.7268073535e+00
1.2512966693e+02 2.7050313514e+00
1.2758564584e+02 2.6834636713e+00
1.3008508813e+02 2.6621095545e+00
1.3262884523e+02 2.6410038424e+00
1.3521778371e+02 2.6201077205e+00
1.3785278552e+02 2.5992779614e+00
1.4053474831e+02 2.5782859207e+00
1.4326458570e+02 2.5569084841e+00
1.4604322764e+02 2.5349567952e+00
1.4887162071e+02 2.5122938626e+00
1.5175072843e+02 2.4888620990e+00
1.5468153159e+02 2.4648225784e+00
1.5766502861e+02 2.4405284512e+00
1.6070223585e+02 2.4162340356e+00
1.6379418795e+02 2.3920830402e+00
1.6694193823e+02 2.3679552044e+00
1.7014655900e+02 2.3432952498e+00
1.7340914194e+02 2.3176733509e+00
1.7673079848e+02 2.2911455879e+00
1.8011266020e+02 2.2638295615e+00
1.8355587914e+02 2.2358706700e+00
1.8706162828e+02 2.2075342380e+00
1.9063110189e+02 2.1791977353e+00
1.9426551594e+02 2.1505940440e+00
1.9796610854e+02 2.1214115107e+00
2.0173414033e+02 2.0918562680e+00
2.0557089493e+02 2.0625481443e+00
2.0947767937e+02 2.0337972717e+00
2.1345582454e+02 2.0047508463e+00
2.1750668562e+02 1.9746027200e+00
2.2163164260e+02 1.9431783268e+00
2.2583210068e+02 1.9107891309e+00
2.3010949078e+02 1.8774850601e+00
2.3446527005e+02 1.8431617801e+00
2.3890092232e+02 1.8082231943e+00
2.4341795865e+02 1.7730992549e+00
2.4801791781e+02 1.7375912741e+00
2.5270236682e+02 1.7010530522e+00
2.5747290150e+02 1.6639458706e+00
2.6233114696e+02 1.6269153938e+00
2.6727875823e+02 1.5891381041e+00
2.7231742076e+02 1.5500651789e+00
2.7744885101e+02 1.5101943895e+00
2.8267479708e+02 1.4697114433e+00
2.8799703921e+02 1.4284804675e+00
2.9341739051e+02 1.3862548125e+00
2.9893769745e+02 1.3434999140e+00
3.0455984059e+02 1.3000006806e+00
3.1028573518e+02 1.2549987101e+00
3.1611733179e+02 1.2082414282e+00
3.2205661702e+02 1.1602244621e+00
3.2810561415e+02 1.1116739944e+00
3.3426638381e+02 1.0627608882e+00
3.4054102473e+02 1.0130987533e+00
3.4693167437e+02 9.6193059690e-01
3.5344050967e+02 9.0873640300e-01
3.6006974768e+02 8.5459507654e-01
3.6682164618e+02 7.9981745236e-01
3.7369850410e+02 7.4464648165e-01
3.8070266166e+02 6.8930988440e-01
3.8783649994e+02 6.3409752729e-01
3.9510243939e+02 5.7879687296e-01
4.0250293658e+02 5.2354921499e-01
4.1004047808e+02 4.6921863372e-01
4.1771756960e+02 4.1667544074e-01
4.2553671823e+02 3.6603260941e-01
4.3350040448e+02 3.1821733955e-01
4.4161104030e+02 2.7395687033e-01
4.4987090866e+02 2.3332220648e-01
4.5828208032e+02 1.9654523608e-01
4.6684630417e+02 1.6412955101e-01
4.7556486928e+02 1.3570720613e-01
4.8443844007e+02 1.1108224708e-01
4.9346687031e+02 9.0479112150e-02
5.0264900663e+02 7.3744361276e-02
5.1198249775e+02 5.9929634551e-02
5.2146362975e+02 4.8597151653e-02
5.3108721016e+02 3.9394752827e-02
5.4084652259e+02 3.2124853493e-02
5.5073336928e+02 2.6556741762e-02
5.6073821057e+02 2.2188546737e-02
5.7085039974e+02 1.8697969358e-02
5.8105849942e+02 1.5818019948e-02
5.9135065524e+02 1.3484273972e-02
6.0171499445e+02 1.1648938468e-02
6.1214001398e+02 1.0106436147e-02
6.2261492451e+02 8.8083835328e-03
6.3312992358e+02 7.7251857306e-03
6.4367638126e+02 6.8028173341e-03
6.5424693300e+02 6.0300867261e-03
6.6483548556e+02 5.3763891025e-03
6.7543715021e+02 4.8221390344e-03
6.8604812299e+02 4.3508981976e-03
6.9666553289e+02 3.9432514029e-03
7.0728727802e+02 3.5881582124e-03
7.1791186556e+02 3.2775768350e-03
7.2853826695e+02 3.0037072421e-03
7.3916579460e+02 2.7609958586e-03
7.4979400256e+02 2.5461592507e-03
7.6042261022e+02 2.3548675685e-03
7.7105144622e+02 2.1837555951e-03
7.8168040906e+02 2.0301450601e-03
7.9230944040e+02 1.8920375829e-03
8.0293850768e+02 1.7674411551e-03
8.1356759330e+02 1.6548948295e-03
8.2419668801e+02 1.5528776523e-03
8.3482578710e+02 1.4602967871e-03
8.4545488823e+02 1.3759665451e-03
8.5608399030e+02 1.2990672928e-03
8.6671309277e+02 1.2286778806e-03
8.7734219542e+02 1.1641946978e-03
8.8797129815e+02 1.1049056454e-03
8.9860040090e+02 1.0503884429e-03
9.0922950367e+02 1.0001069460e-03
9.1985860644e+02 9.5376939575e-04
9.3048770921e+02 9.1095180847e-04
9.4111681199e+02 8.7143069659e-04
9.5174591476e+02 8.3484529199e-04
9.6237501753e+02 8.0100791014e-04
9.7300412031e+02 7.6960630642e-04
9.8363322308e+02 7.4049065361e-04
9.9426232586e+02 7.1340096154e-04
1.0048914286e+03 6.8822462889e-04
1.0155205314e+03 6.6474311802e-04
1.0261496342e+03 6.4286775009e-04
1.0367787369e+03 6.2241070913e-04
1.0474078397e+03 6.0330347121e-04
1.0580369425e+03 5.8538673108e-04
1.0686660453e+03 5.6861366628e-04
1.0792951480e+03 5.5285412294e-04
1.0899242508e+03 5.3808499186e-04
1.1005533536e+03 5.2420041314e-04
1.1111824564e+03 5.1118476652e-04
1.1218115591e+03 4.9893634466e-04
1.1324406619e+03 4.8743631322e-04
1.1430697647e+03 4.7659175674e-04
1.1536988675e+03 4.6639698062e-04
1.1643279702e+03 4.5678145788e-04
1.1749570730e+03 4.4775553274e-04
1.1855861758e+03 4.3926227162e-04
1.1962152786e+03 4.3131257130e-04
1.2068443813e+03 4.2384755149e-04
1.2174734841e+03 4.1686547431e-04
1.2281025869e+03 4.1029566062e-04
1.2387316896e+03 4.0412086783e-04
1.2493607924e+03 3.9826825620e-04
1.2599898952e+03 3.9272602461e-04
1.2706189980e+03 3.8743972296e-04
1.2812481007e+03 3.8240970458e-04
1.2918772035e+03 3.7759101955e-04
1.3025063063e+03 3.7298416057e-04
1.3131354091e+03 3.6855642475e-04
1.3237645118e+03 3.6432976978e-04
1.3343936146e+03 3.6030927733e-04
1.3450227174e+03 3.5653441720e-04
1.3556518202e+03 3.5300455888e-04
1.3662809229e+03 3.4971972902e-04
1.3769100257e+03 3.4664766872e-04
1.3875391285e+03 3.4376814959e-04
1.3981682312e+03 3.4105490878e-04
1.4087973340e+03 3.3849530478e-04
1.4194264368e+03 3.3607806643e-04
1.4300555396e+03 3.3379812591e-04
1.4406846423e+03 3.3165697743e-04
1.4513137451e+03 3.2965457113e-04
1.4619428479e+03 3.2780014487e-04
1.4725719507e+03 3.2608719039e-04
1.4832010534e+03 3.2451621400e-04
1.4938301562e+03 3.2305817821e-04
1.5044592590e+03 3.2170123328e-04
1.5150883618e+03 3.2040658705e-04
1.5257174645e+03 3.1917283126e-04
1.5363465673e+03 3.1797229728e-04
1.5469756701e+03 3.1682278138e-04
1.5576047728e+03 3.1570776850e-04
1.5682338756e+03 3.1465499538e-04
1.5788629784e+03 3.1364875796e-04
1.5894920812e+03 3.1271112560e-04
1.6001211839e+03 3.1181958453e-04
1.6107502867e+03 3.1098893225e-04
1.6213793895e+03 3.1019981298e-04
1.6320084923e+03 3.0946661116e-04
1.6426375950e+03 3.0877584278e-04
1.6532666978e+03 3.0813536708e-04
1.6638958006e+03 3.0753324498e-04
1.6745249034e+03 3.0697092629e-04
1.6851540061e+03 3.0644407431e-04
1.6957831089e+03 3.0595392250e-04
1.7064122117e+03 3.0550466452e-04
1.7170413145e+03 3.0509657390e-04
1.7276704172e+03 3.0473912094e-04
1.7382995200e+03 3.0443175646e-04
1.7489286228e+03 3.0418461372e-04
1.7595577255e+03 3.0399290827e-04
1.7701868283e+03 3.0385940633e-04
1.7808159311e+03 3.0377257194e-04
1.7914450339e+03 3.0372397708e-04
1.8020741366e+03 3.0369755824e-04
1.8127032394e+03 3.0367790129e-04
1.8233323422e+03 3.0365396362e-04
1.8339614450e+03 3.0361443760e-04
1.8445905477e+03 3.0355984056e-04
1.8552196505e+03 3.0348823664e-04
1.8658487533e+03 3.0340720419e-04
1.8764778561e+03 3.0332196393e-04
1.8871069588e+03 3.0323619288e-04
1.8977360616e+03 3.0315926333e-04
1.9083651644e+03 3.0308349029e-04
1.9189942671e+03 3.0302649451e-04
1.9296233699e+03 3.0296752525e-04
1.9402524727e+03 3.0293846565e-04
1.9508815755e+03 3.0290233001e-04
1.9615106782e+03 3.0290987107e-04
1.9721397810e+03 3.0290414074e-04
1.9827688838e+03 3.0296019891e-04
1.9933979866e+03 3.0299358066e-04
2.0040270893e+03 3.0310606093e-04
2.0146561921e+03 3.0317513534e-04
2.0252852949e+03 3.0333841171e-04
2.0359143977e+03 3.0343011664e-04
2.0465435004e+03 3.0363570641e-04
2.0571726032e+03 3.0373709565e-04
2.0678017060e+03 3.0397473602e-04
2.0784308088e+03 3.0406842424e-04
2.0890599115e+03 3.0431694382e-04
2.0996890143e+03 3.0437266428e-04
2.1103181171e+03 3.0459521346e-04
2.1209472198e+03 3.0457746602e-04
2.1315763226e+03 3.0474069310e-04
2.1422054254e+03 3.0463338729e-04
2.1528345282e+03 3.0472653887e-04
2.1634636309e+03 3.0454430085e-04
2.1740927337e+03 3.0458681139e-04
2.1847218365e+03 3.0438466338e-04
2.1953509393e+03 3.0443700577e-04
2.2059800420e+03 3.0431617740e-04
2.2166091448e+03 3.0447733135e-04
2.2272382476e+03 3.0457790532e-04
2.2378673504e+03 3.0498596568e-04
2.2484964531e+03 3.0549900070e-04
2.2591255559e+03 3.0635065643e-04
2.2697546587e+03 3.0751882207e-04
2.2803837614e+03 3.0903417404e-04
2.2910128642e+03 3.1106827033e-04
2.3016419670e+03 3.1337943538e-04
2.3122710698e+03 3.1634303531e-04
2.3229001725e+03 3.1940298613e-04
2.3335292753e+03 3.2315437555e-04
2.3441583781e+03 3.2671233735e-04
2.3547874809e+03 3.3090779019e-04
2.3654165836e+03 3.3453918430e-04
2.3760456864e+03 3.3869266194e-04
2.3866747892e+03 3.4188787103e-04
2.3973038920e+03 3.4548251375e-04
2.4079329947e+03 3.4776684041e-04
2.4185620975e+03 3.5037388060e-04
2.4291912003e+03 3.5142153597e-04
2.4398203030e+03 3.5280847991e-04
2.4504494058e+03 3.5253608765e-04
2.4610785086e+03 3.5272937282e-04
2.4717076114e+03 3.5131644164e-04
2.4823367141e+03 3.5057614440e-04
2.4929658169e+03 3.4841124097e-04
2.5035949197e+03 3.4715985180e-04
2.5142240225e+03 3.4477300679e-04
2.5248531252e+03 3.4352879734e-04
2.5354822280e+03 3.4154344052e-04
2.5461113308e+03 3.4088880655e-04
2.5567404336e+03 3.4002606735e-04
2.5673695363e+03 3.4063802211e-04
2.5779986391e+03 3.4176777672e-04
2.5886277419e+03 3.4447626091e-04
2.5992568447e+03 3.4866748331e-04
2.6098859474e+03 3.5451961119e-04
2.6205150502e+03 3.6305125502e-04
2.6311441530e+03 3.7328156104e-04
2.6417732557e+03 3.8737023165e-04
2.6524023585e+03 4.0291525536e-04
2.6630314613e+03 4.2276763044e-04
2.6736605641e+03 4.4302688660e-04
2.6842896668e+03 4.6625023582e-04
2.6949187696e+03 4.8757480755e-04
2.7055478724e+03 5.0815791725e-04
2.7161769752e+03 5.2385094738e-04
2.7268060779e+03 5.3405393716e-04
2.7374351807e+03 5.3896628786e-04
