# Reynolds stress Morkovin's scaling 
# Columns: y_plus    -rho u''w''/tau_wall
3.8773702413e-01 1.1294873321e-04
1.1571785444e+00 2.0347817720e-03
1.9272980036e+00 8.8469204867e-03
2.6982779270e+00 2.3364274061e-02
3.4703198979e+00 4.7301916777e-02
4.2436415854e+00 8.0719652445e-02
5.0184737565e+00 1.2252805302e-01
5.7950575092e+00 1.7062358791e-01
6.5736418747e+00 2.2279114629e-01
7.3544818564e+00 2.7668357842e-01
8.1378369110e+00 3.3050708817e-01
8.9239698326e+00 3.8267988960e-01
9.7131459760e+00 4.3229201548e-01
1.0505632749e+01 4.7859454062e-01
1.1301699307e+01 5.2136890999e-01
1.2101616390e+01 5.6039614887e-01
1.2905656257e+01 5.9582933967e-01
1.3714092688e+01 6.2771591657e-01
1.4527201024e+01 6.5638062606e-01
1.5345258226e+01 6.8198843405e-01
1.6168542961e+01 7.0491519043e-01
1.6997335681e+01 7.2535063606e-01
1.7831918720e+01 7.4365053284e-01
1.8672576387e+01 7.5997811294e-01
1.9519595060e+01 7.7463523618e-01
2.0373263283e+01 7.8774580283e-01
2.1233871868e+01 7.9955993915e-01
2.2101713990e+01 8.1016424791e-01
2.2977085288e+01 8.1975069942e-01
2.3860283967e+01 8.2836159433e-01
2.4751610897e+01 8.3614141596e-01
2.5651369717e+01 8.4312003123e-01
2.6559866940e+01 8.4943568117e-01
2.7477412056e+01 8.5512759028e-01
2.8404317634e+01 8.6031497532e-01
2.9340899435e+01 8.6500837849e-01
3.0287476515e+01 8.6927922715e-01
3.1244371336e+01 8.7311072166e-01
3.2211909873e+01 8.7656003370e-01
3.3190421728e+01 8.7962365179e-01
3.4180240242e+01 8.8236486526e-01
3.5181702607e+01 8.8478268752e-01
3.6195149980e+01 8.8692501674e-01
3.7220927603e+01 8.8877673465e-01
3.8259384918e+01 8.9036445678e-01
3.9310875686e+01 8.9166838795e-01
4.0375758108e+01 8.9272997865e-01
4.1454394947e+01 8.9356883724e-01
4.2547153652e+01 8.9425058197e-01
4.3654406483e+01 8.9479143998e-01
4.4776530636e+01 8.9522797185e-01
4.5913908375e+01 8.9555126440e-01
4.7066927159e+01 8.9577792371e-01
4.8235979776e+01 8.9588696404e-01
4.9421464475e+01 8.9588029900e-01
5.0623785105e+01 8.9573227844e-01
5.1843351247e+01 8.9545210767e-01
5.3080578360e+01 8.9503522581e-01
5.4335887919e+01 8.9451190283e-01
5.5609707556e+01 8.9389596495e-01
5.6902471212e+01 8.9322304329e-01
5.8214619280e+01 8.9249513489e-01
5.9546598757e+01 8.9171297012e-01
6.0898863395e+01 8.9084143236e-01
6.2271873857e+01 8.8986378610e-01
6.3666097873e+01 8.8875375239e-01
6.5082010401e+01 8.8750483619e-01
6.6520093784e+01 8.8609493419e-01
6.7980837922e+01 8.8452536010e-01
6.9464740431e+01 8.8280280727e-01
7.0972306819e+01 8.8097275212e-01
7.2504050652e+01 8.7906804044e-01
7.4060493737e+01 8.7711237748e-01
7.5642166290e+01 8.7509127096e-01
7.7249607125e+01 8.7298262082e-01
7.8883363833e+01 8.7074753088e-01
8.0543992970e+01 8.6838339600e-01
8.2232060247e+01 8.6590780099e-01
8.3948140720e+01 8.6334642814e-01
8.5692818992e+01 8.6068962407e-01
8.7466689403e+01 8.5793471287e-01
8.9270356242e+01 8.5509538222e-01
9.1104433945e+01 8.5222380966e-01
9.2969547311e+01 8.4936126149e-01
9.4866331710e+01 8.4651089583e-01
9.6795433299e+01 8.4361342844e-01
9.8757509249e+01 8.4062634279e-01
1.0075322796e+02 8.3756681097e-01
1.0278326929e+02 8.3447889306e-01
1.0484832481e+02 8.3136040037e-01
1.0694909798e+02 8.2819377743e-01
1.0908630446e+02 8.2495952269e-01
1.1126067231e+02 8.2161480468e-01
1.1347294226e+02 8.1809091984e-01
1.1572386793e+02 8.1437668827e-01
1.1801421613e+02 8.1050515644e-01
1.2034476708e+02 8.0653708677e-01
1.2271631472e+02 8.0251394132e-01
1.2512966693e+02 7.9843406443e-01
1.2758564584e+02 7.9422820743e-01
1.3008508813e+02 7.8985305587e-01
1.3262884523e+02 7.8527975183e-01
1.3521778371e+02 7.8048560637e-01
1.3785278552e+02 7.7551243167e-01
1.4053474831e+02 7.7039828045e-01
1.4326458570e+02 7.6514077515e-01
1.4604322764e+02 7.5978482719e-01
1.4887162071e+02 7.5436493130e-01
1.5175072843e+02 7.4884340589e-01
1.5468153159e+02 7.4312643795e-01
1.5766502861e+02 7.3715241052e-01
1.6070223585e+02 7.3092121297e-01
1.6379418795e+02 7.2445709186e-01
1.6694193823e+02 7.1774075143e-01
1.7014655900e+02 7.1076326039e-01
1.7340914194e+02 7.0353048752e-01
1.7673079848e+02 6.9613066802e-01
1.8011266020e+02 6.8871790144e-01
1.8355587914e+02 6.8129668420e-01
1.8706162828e+02 6.7379817581e-01
1.9063110189e+02 6.6615961668e-01
1.9426551594e+02 6.5830560227e-01
1.9796610854e+02 6.5035473927e-01
2.0173414033e+02 6.4252439820e-01
2.0557089493e+02 6.3480812274e-01
2.0947767937e+02 6.2699113057e-01
2.1345582454e+02 6.1880259924e-01
2.1750668562e+02 6.1006719741e-01
2.2163164260e+02 6.0084757121e-01
2.2583210068e+02 5.9116558795e-01
2.3010949078e+02 5.8103178131e-01
2.3446527005e+02 5.7051697670e-01
2.3890092232e+02 5.5964257574e-01
2.4341795865e+02 5.4856661938e-01
2.4801791781e+02 5.3745985450e-01
2.5270236682e+02 5.2634527686e-01
2.5747290150e+02 5.1510015247e-01
2.6233114696e+02 5.0356890499e-01
2.6727875823e+02 4.9163316542e-01
2.7231742076e+02 4.7922674055e-01
2.7744885101e+02 4.6624813335e-01
2.8267479708e+02 4.5281129987e-01
2.8799703921e+02 4.3929509572e-01
2.9341739051e+02 4.2583683740e-01
2.9893769745e+02 4.1228850902e-01
3.0455984059e+02 3.9837541017e-01
3.1028573518e+02 3.8387873655e-01
3.1611733179e+02 3.6888503505e-01
3.2205661702e+02 3.5312560985e-01
3.2810561415e+02 3.3696254246e-01
3.3426638381e+02 3.2080060473e-01
3.4054102473e+02 3.0470374466e-01
3.4693167437e+02 2.8853720870e-01
3.5344050967e+02 2.7200976044e-01
3.6006974768e+02 2.5518936744e-01
3.6682164618e+02 2.3825193775e-01
3.7369850410e+02 2.2118338437e-01
3.8070266166e+02 2.0426989647e-01
3.8783649994e+02 1.8771526764e-01
3.9510243939e+02 1.7138671460e-01
4.0250293658e+02 1.5544029186e-01
4.1004047808e+02 1.4005952213e-01
4.1771756960e+02 1.2507615182e-01
4.2553671823e+02 1.1057011234e-01
4.3350040448e+02 9.6705273984e-02
4.4161104030e+02 8.3659510105e-02
4.4987090866e+02 7.1466254826e-02
4.5828208032e+02 6.0238168201e-02
4.6684630417e+02 5.0181976011e-02
4.7556486928e+02 4.1312472702e-02
4.8443844007e+02 3.3501173232e-02
4.9346687031e+02 2.6882649314e-02
5.0264900663e+02 2.1364694714e-02
5.1198249775e+02 1.6577236186e-02
5.2146362975e+02 1.2481517652e-02
5.3108721016e+02 9.1966368051e-03
5.4084652259e+02 6.6887387930e-03
5.5073336928e+02 4.8349829458e-03
5.6073821057e+02 3.4478123411e-03
5.7085039974e+02 2.4374709457e-03
5.8105849942e+02 1.6994507927e-03
5.9135065524e+02 1.1796316854e-03
6.0171499445e+02 8.5000317930e-04
6.1214001398e+02 6.3075983025e-04
6.2261492451e+02 4.6168504445e-04
6.3312992358e+02 3.3031476383e-04
6.4367638126e+02 2.3184838235e-04
6.5424693300e+02 1.6733956078e-04
6.6483548556e+02 1.3371511393e-04
6.7543715021e+02 1.1399208440e-04
6.8604812299e+02 1.0021730694e-04
6.9666553289e+02 9.1342528847e-05
7.0728727802e+02 8.5022614187e-05
7.1791186556e+02 7.7469244159e-05
7.2853826695e+02 6.8593034837e-05
7.3916579460e+02 6.0014181853e-05
7.4979400256e+02 5.3672905399e-05
7.6042261022e+02 4.9525143066e-05
7.7105144622e+02 4.6160539686e-05
7.8168040906e+02 4.3210193038e-05
7.9230944040e+02 4.0671412510e-05
8.0293850768e+02 3.8529856618e-05
8.1356759330e+02 3.6750799783e-05
8.2419668801e+02 3.5265010796e-05
8.3482578710e+02 3.4014756026e-05
8.4545488823e+02 3.2904470957e-05
8.5608399030e+02 3.1883569395e-05
8.6671309277e+02 3.0889895256e-05
8.7734219542e+02 2.9919024542e-05
8.8797129815e+02 2.8946331474e-05
8.9860040090e+02 2.7984729331e-05
9.0922950367e+02 2.7023066497e-05
9.1985860644e+02 2.6082521973e-05
9.3048770921e+02 2.5164400666e-05
9.4111681199e+02 2.4291579562e-05
9.5174591476e+02 2.3460519553e-05
9.6237501753e+02 2.2677456296e-05
9.7300412031e+02 2.1922544945e-05
9.8363322308e+02 2.1188792147e-05
9.9426232586e+02 2.0446378953e-05
1.0048914286e+03 1.9686364522e-05
1.0155205314e+03 1.8888179706e-05
1.0261496342e+03 1.8069540063e-05
1.0367787369e+03 1.7243909936e-05
1.0474078397e+03 1.6453706020e-05
1.0580369425e+03 1.5714214497e-05
1.0686660453e+03 1.5048632820e-05
1.0792951480e+03 1.4438897619e-05
1.0899242508e+03 1.3882082443e-05
1.1005533536e+03 1.3349287223e-05
1.1111824564e+03 1.2843148248e-05
1.1218115591e+03 1.2346282007e-05
1.1324406619e+03 1.1866902311e-05
1.1430697647e+03 1.1389562271e-05
1.1536988675e+03 1.0924338192e-05
1.1643279702e+03 1.0463018423e-05
1.1749570730e+03 1.0022220376e-05
1.1855861758e+03 9.5924799087e-06
1.1962152786e+03 9.1786152170e-06
1.2068443813e+03 8.7595132348e-06
1.2174734841e+03 8.3393804994e-06
1.2281025869e+03 7.9088727393e-06
1.2387316896e+03 7.4855930153e-06
1.2493607924e+03 7.0649744906e-06
1.2599898952e+03 6.6594869478e-06
1.2706189980e+03 6.2568770121e-06
1.2812481007e+03 5.8622119488e-06
1.2918772035e+03 5.4610676906e-06
1.3025063063e+03 5.0581945550e-06
1.3131354091e+03 4.6400283272e-06
1.3237645118e+03 4.2124551864e-06
1.3343936146e+03 3.7595499614e-06
1.3450227174e+03 3.2909088622e-06
1.3556518202e+03 2.7927652889e-06
1.3662809229e+03 2.2863940063e-06
1.3769100257e+03 1.7622081295e-06
1.3875391285e+03 1.2480198806e-06
1.3981682312e+03 7.3000668704e-07
1.4087973340e+03 2.3413419907e-07
1.4194264368e+03 -2.6016800159e-07
1.4300555396e+03 -7.3056324220e-07
1.4406846423e+03 -1.2039303426e-06
1.4513137451e+03 -1.6631968943e-06
1.4619428479e+03 -2.1404195089e-06
1.4725719507e+03 -2.6181307499e-06
1.4832010534e+03 -3.1247206364e-06
1.4938301562e+03 -3.6329541683e-06
1.5044592590e+03 -4.1649497120e-06
1.5150883618e+03 -4.6871417535e-06
1.5257174645e+03 -5.2239580939e-06
1.5363465673e+03 -5.7453596903e-06
1.5469756701e+03 -6.2818669362e-06
1.5576047728e+03 -6.8038019122e-06
1.5682338756e+03 -7.3381788581e-06
1.5788629784e+03 -7.8499021273e-06
1.5894920812e+03 -8.3623970249e-06
1.6001211839e+03 -8.8399725391e-06
1.6107502867e+03 -9.3096389362e-06
1.6213793895e+03 -9.7410770784e-06
1.6320084923e+03 -1.0170115922e-05
1.6426375950e+03 -1.0571456957e-05
1.6532666978e+03 -1.0985477659e-05
1.6638958006e+03 -1.1385821601e-05
1.6745249034e+03 -1.1812101245e-05
1.6851540061e+03 -1.2236884694e-05
1.6957831089e+03 -1.2695693449e-05
1.7064122117e+03 -1.3156033069e-05
1.7170413145e+03 -1.3644714150e-05
1.7276704172e+03 -1.4126761106e-05
1.7382995200e+03 -1.4627961161e-05
1.7489286228e+03 -1.5114731869e-05
1.7595577255e+03 -1.5612172192e-05
1.7701868283e+03 -1.6084275537e-05
1.7808159311e+03 -1.6558109051e-05
1.7914450339e+03 -1.6995560238e-05
1.8020741366e+03 -1.7426576040e-05
1.8127032394e+03 -1.7807933150e-05
1.8233323422e+03 -1.8176497580e-05
1.8339614450e+03 -1.8493098303e-05
1.8445905477e+03 -1.8812133781e-05
1.8552196505e+03 -1.9101207319e-05
1.8658487533e+03 -1.9422709857e-05
1.8764778561e+03 -1.9735691916e-05
1.8871069588e+03 -2.0097239340e-05
1.8977360616e+03 -2.0454049933e-05
1.9083651644e+03 -2.0859472887e-05
1.9189942671e+03 -2.1251381252e-05
1.9296233699e+03 -2.1681878260e-05
1.9402524727e+03 -2.2086847374e-05
1.9508815755e+03 -2.2524939298e-05
1.9615106782e+03 -2.2938866892e-05
1.9721397810e+03 -2.3391977725e-05
1.9827688838e+03 -2.3827361252e-05
1.9933979866e+03 -2.4298093621e-05
2.0040270893e+03 -2.4743062975e-05
2.0146561921e+03 -2.5206025225e-05
2.0252852949e+03 -2.5640815396e-05
2.0359143977e+03 -2.6090513911e-05
2.0465435004e+03 -2.6532673395e-05
2.0571726032e+03 -2.6992036705e-05
2.0678017060e+03 -2.7461463693e-05
2.0784308088e+03 -2.7929891234e-05
2.0890599115e+03 -2.8411778873e-05
2.0996890143e+03 -2.8862708078e-05
2.1103181171e+03 -2.9330932197e-05
2.1209472198e+03 -2.9739823479e-05
2.1315763226e+03 -3.0172299583e-05
2.1422054254e+03 -3.0520416481e-05
2.1528345282e+03 -3.0902301065e-05
2.1634636309e+03 -3.1187170709e-05
2.1740927337e+03 -3.1522980295e-05
2.1847218365e+03 -3.1762641190e-05
2.1953509393e+03 -3.2071393752e-05
2.2059800420e+03 -3.2296971097e-05
2.2166091448e+03 -3.2608163569e-05
2.2272382476e+03 -3.2857302017e-05
2.2378673504e+03 -3.3192656763e-05
2.2484964531e+03 -3.3480366287e-05
2.2591255559e+03 -3.3831455231e-05
2.2697546587e+03 -3.4150395721e-05
2.2803837614e+03 -3.4501181960e-05
2.2910128642e+03 -3.4843069954e-05
2.3016419670e+03 -3.5172709521e-05
2.3122710698e+03 -3.5512337599e-05
2.3229001725e+03 -3.5785194589e-05
2.3335292753e+03 -3.6094932875e-05
2.3441583781e+03 -3.6300497787e-05
2.3547874809e+03 -3.6590139429e-05
2.3654165836e+03 -3.6759237716e-05
2.3760456864e+03 -3.7061372498e-05
2.3866747892e+03 -3.7232701333e-05
2.3973038920e+03 -3.7569183643e-05
2.4079329947e+03 -3.7766706624e-05
2.4185620975e+03 -3.8142738330e-05
2.4291912003e+03 -3.8380667048e-05
2.4398203030e+03 -3.8794179792e-05
2.4504494058e+03 -3.9081597414e-05
2.4610785086e+03 -3.9524433602e-05
2.4717076114e+03 -3.9865715081e-05
2.4823367141e+03 -4.0324817401e-05
2.4929658169e+03 -4.0717938565e-05
2.5035949197e+03 -4.1164721112e-05
2.5142240225e+03 -4.1589179371e-05
2.5248531252e+03 -4.1974586712e-05
2.5354822280e+03 -4.2407575352e-05
2.5461113308e+03 -4.2694193535e-05
2.5567404336e+03 -4.3147567488e-05
2.5673695363e+03 -4.3329585808e-05
2.5779986391e+03 -4.3847884705e-05
2.5886277419e+03 -4.3925034253e-05
2.5992568447e+03 -4.4553708164e-05
2.6098859474e+03 -4.4509909816e-05
2.6205150502e+03 -4.5287425350e-05
2.6311441530e+03 -4.5110070507e-05
2.6417732557e+03 -4.6066461972e-05
2.6524023585e+03 -4.5765787090e-05
2.6630314613e+03 -4.6888976718e-05
2.6736605641e+03 -4.6521507893e-05
2.6842896668e+03 -4.7743120742e-05
2.6949187696e+03 -4.7466325292e-05
2.7055478724e+03 -4.8669138118e-05
2.7161769752e+03 -4.8713810986e-05
2.7268060779e+03 -4.9740302336e-05
2.7374351807e+03 -5.0284610898e-05
