# Rotated Reynolds stress Morkovin's scaling
# Columns: y_plus    -rho u''v''rotated/tau_wall
3.9100267708e-01 1.1399291764e-04
1.1669246953e+00 2.0412360802e-03
1.9435303622e+00 8.8495753979e-03
2.7210037404e+00 2.3333144558e-02
3.4995481111e+00 4.7200513381e-02
4.2793829765e+00 8.0524180871e-02
5.0607410474e+00 1.2224227577e-01
5.8438654524e+00 1.7027869790e-01
6.6290073199e+00 2.2244553905e-01
7.4164238012e+00 2.7641293626e-01
8.2063765381e+00 3.3039555193e-01
8.9991305383e+00 3.8279839318e-01
9.7949533913e+00 4.3269061179e-01
1.0594114757e+01 4.7929576071e-01
1.1396886058e+01 5.2238064387e-01
1.2203540314e+01 5.6171706783e-01
1.3014352078e+01 5.9745719211e-01
1.3829597436e+01 6.2963652594e-01
1.4649554046e+01 6.5856359375e-01
1.5474501205e+01 6.8438187064e-01
1.6304719923e+01 7.0745796249e-01
1.7140493017e+01 7.2797837115e-01
1.7982105198e+01 7.4630273675e-01
1.8829843169e+01 7.6259383810e-01
1.9683995721e+01 7.7715608915e-01
2.0544853828e+01 7.9011492235e-01
2.1412710751e+01 8.0172397634e-01
2.2287862134e+01 8.1207028597e-01
2.3170606107e+01 8.2135141196e-01
2.4061243385e+01 8.2961967995e-01
2.4960077373e+01 8.3703260278e-01
2.5867414268e+01 8.4362167975e-01
2.6783563163e+01 8.4951172194e-01
2.7708836155e+01 8.5471968711e-01
2.8643548447e+01 8.5935257601e-01
2.9588018458e+01 8.6342388782e-01
3.0542567932e+01 8.6701773721e-01
3.1507522046e+01 8.7012649472e-01
3.2483209521e+01 8.7280438034e-01
3.3469962736e+01 8.7503063220e-01
3.4468117838e+01 8.7684866040e-01
3.5478014859e+01 8.7824758792e-01
3.6499997830e+01 8.7928205906e-01
3.7534414901e+01 8.7995724939e-01
3.8581618456e+01 8.8032709583e-01
3.9641965236e+01 8.8039390025e-01
4.0715816460e+01 8.8020813415e-01
4.1803537945e+01 8.7979065224e-01
4.2905500235e+01 8.7921930190e-01
4.4022078725e+01 8.7854138204e-01
4.5153653789e+01 8.7783472597e-01
4.6300610910e+01 8.7712557358e-01
4.7463340810e+01 8.7644763205e-01
4.8642239585e+01 8.7577472605e-01
4.9837708839e+01 8.7508630693e-01
5.1050155822e+01 8.7432091471e-01
5.2279993564e+01 8.7344353481e-01
5.3527641025e+01 8.7239766440e-01
5.4793523226e+01 8.7116290808e-01
5.6078071405e+01 8.6972433197e-01
5.7381723156e+01 8.6812183674e-01
5.8704922581e+01 8.6638559545e-01
6.0048120441e+01 8.6455427788e-01
6.1411774312e+01 8.6262330670e-01
6.2796348734e+01 8.6059180968e-01
6.4202315379e+01 8.5844730743e-01
6.5630153203e+01 8.5621086937e-01
6.7080348613e+01 8.5389973301e-01
6.8553395635e+01 8.5155505267e-01
7.0049796075e+01 8.4920338545e-01
7.1570059699e+01 8.4688012988e-01
7.3114704399e+01 8.4459164015e-01
7.4684256376e+01 8.4233066349e-01
7.6279250313e+01 8.4005461514e-01
7.7900229560e+01 8.3773575919e-01
7.9547746322e+01 8.3535613799e-01
8.1222361842e+01 8.3292497720e-01
8.2924646595e+01 8.3043910400e-01
8.4655180482e+01 8.2790589428e-01
8.6414553026e+01 8.2532514589e-01
8.8203363577e+01 8.2269436089e-01
9.0022221510e+01 8.1998526425e-01
9.1871746439e+01 8.1719408136e-01
9.3752568424e+01 8.1432620138e-01
9.5665328185e+01 8.1138525064e-01
9.7610677324e+01 8.0832068036e-01
9.9589278544e+01 8.0504910861e-01
1.0160180588e+02 8.0149597367e-01
1.0364894491e+02 7.9767160889e-01
1.0573139302e+02 7.9363250138e-01
1.0784985962e+02 7.8946375557e-01
1.1000506638e+02 7.8526749975e-01
1.1219774750e+02 7.8112605217e-01
1.1442864993e+02 7.7704522674e-01
1.1669853366e+02 7.7301218121e-01
1.1900817195e+02 7.6900391437e-01
1.2135835159e+02 7.6492070503e-01
1.2374987321e+02 7.6059933286e-01
1.2618355149e+02 7.5596893002e-01
1.2866021550e+02 7.5103902719e-01
1.3118070893e+02 7.4589442779e-01
1.3374589042e+02 7.4066022930e-01
1.3635663383e+02 7.3540689822e-01
1.3901382852e+02 7.3009528676e-01
1.4171837970e+02 7.2457064822e-01
1.4447120871e+02 7.1863059935e-01
1.4727325332e+02 7.1222778610e-01
1.5012546808e+02 7.0542132434e-01
1.5302882462e+02 6.9831239221e-01
1.5598431200e+02 6.9100694212e-01
1.5899293705e+02 6.8366272715e-01
1.6205572468e+02 6.7635038757e-01
1.6517371825e+02 6.6895552694e-01
1.6834797995e+02 6.6147923274e-01
1.7157959112e+02 6.5409755441e-01
1.7486965264e+02 6.4689035241e-01
1.7821928531e+02 6.3978919739e-01
1.8162963021e+02 6.3268201631e-01
1.8510184912e+02 6.2553777024e-01
1.8863712487e+02 6.1826880993e-01
1.9223666179e+02 6.1074001585e-01
1.9590168612e+02 6.0301998804e-01
1.9963344636e+02 5.9523931203e-01
2.0343321380e+02 5.8734738256e-01
2.0730228285e+02 5.7917612534e-01
2.1124197156e+02 5.7065556725e-01
2.1525362201e+02 5.6164502944e-01
2.1933860083e+02 5.5208886192e-01
2.2349829959e+02 5.4227287296e-01
2.2773413535e+02 5.3237696308e-01
2.3204755109e+02 5.2221673984e-01
2.3644001621e+02 5.1154504597e-01
2.4091302705e+02 5.0029629400e-01
2.4546810739e+02 4.8868372959e-01
2.5010680897e+02 4.7699399360e-01
2.5483071201e+02 4.6538945573e-01
2.5964142574e+02 4.5375646454e-01
2.6454058900e+02 4.4196025883e-01
2.6952987074e+02 4.2994551464e-01
2.7461097059e+02 4.1770026630e-01
2.7978561950e+02 4.0519933315e-01
2.8505558025e+02 3.9241113065e-01
2.9042264812e+02 3.7957424116e-01
2.9588865145e+02 3.6671872280e-01
3.0145545230e+02 3.5370036847e-01
3.0712494704e+02 3.4056413043e-01
3.1289906706e+02 3.2719410355e-01
3.1877977936e+02 3.1355941057e-01
3.2476908727e+02 2.9973210616e-01
3.3086903110e+02 2.8578332832e-01
3.3708168886e+02 2.7172119394e-01
3.4340917693e+02 2.5748445709e-01
3.4985365079e+02 2.4313425186e-01
3.5641730571e+02 2.2851005185e-01
3.6310237742e+02 2.1354977433e-01
3.6991114271e+02 1.9841380414e-01
3.7684591986e+02 1.8335720226e-01
3.8390906882e+02 1.6869356281e-01
3.9110299071e+02 1.5430576196e-01
3.9843012636e+02 1.4016635585e-01
4.0589295306e+02 1.2649597188e-01
4.1349397829e+02 1.1336801424e-01
4.2123572889e+02 1.0084622966e-01
4.2912073304e+02 8.9026978366e-02
4.3715149217e+02 7.7758688116e-02
4.4533043852e+02 6.7012309094e-02
4.5365987429e+02 5.6968992365e-02
4.6214188770e+02 4.7730298151e-02
4.7077824235e+02 3.9639583737e-02
4.7957023817e+02 3.2676976461e-02
4.8851854519e+02 2.6647582550e-02
4.9762301594e+02 2.1487218883e-02
5.0688248733e+02 1.7122508454e-02
5.1629458829e+02 1.3467090219e-02
5.2585557360e+02 1.0409843306e-02
5.3556020708e+02 7.8633776102e-03
5.4540171575e+02 5.7955597151e-03
5.5537183282e+02 4.1429432608e-03
5.6546093828e+02 2.9513528656e-03
5.7565829575e+02 2.0940627009e-03
5.8595237151e+02 1.4600112567e-03
5.9633121136e+02 9.9545645093e-04
6.0678284256e+02 6.5870892623e-04
6.1729566514e+02 4.4053764691e-04
6.2785879892e+02 3.0152323179e-04
6.3846235889e+02 2.0920446900e-04
6.4909764242e+02 1.6685089902e-04
6.5975722295e+02 1.3308815703e-04
6.7043495588e+02 8.9524203336e-05
6.8112591136e+02 6.2282113774e-05
6.9182625336e+02 5.6252568736e-05
7.0253308669e+02 5.3487127449e-05
7.1324429176e+02 4.9202820222e-05
7.2395836319e+02 4.6220450198e-05
7.3467426374e+02 4.4227051647e-05
7.4539130004e+02 4.1905879782e-05
7.5610902239e+02 3.9571604312e-05
7.6682714778e+02 3.6592734904e-05
7.7754550345e+02 3.3575964927e-05
7.8826398703e+02 3.1224699522e-05
7.9898253968e+02 2.9357752198e-05
8.0970112858e+02 2.7793774902e-05
8.2041973597e+02 2.6457749950e-05
8.3113835253e+02 2.5282288488e-05
8.4185697350e+02 2.4189035048e-05
8.5257559653e+02 2.3140720103e-05
8.6329422051e+02 2.2120532080e-05
8.7401284489e+02 2.1133768700e-05
8.8473146946e+02 2.0189878078e-05
8.9545009410e+02 1.9302008228e-05
9.0616871877e+02 1.8479873887e-05
9.1688734345e+02 1.7726613396e-05
9.2760596814e+02 1.7028951324e-05
9.3832459282e+02 1.6370785269e-05
9.4904321751e+02 1.5732344888e-05
9.5976184220e+02 1.5103206577e-05
9.7048046689e+02 1.4480348963e-05
9.8119909158e+02 1.3865945324e-05
9.9191771626e+02 1.3261436164e-05
1.0026363410e+03 1.2667370439e-05
1.0133549656e+03 1.2073688742e-05
1.0240735903e+03 1.1477088816e-05
1.0347922150e+03 1.0864241142e-05
1.0455108397e+03 1.0245582566e-05
1.0562294644e+03 9.6245686388e-06
1.0669480891e+03 9.0325753675e-06
1.0776667138e+03 8.4786053641e-06
1.0883853385e+03 7.9901943360e-06
1.0991039631e+03 7.5570551573e-06
1.1098225878e+03 7.1872223666e-06
1.1205412125e+03 6.8492135265e-06
1.1312598372e+03 6.5368475732e-06
1.1419784619e+03 6.2152545133e-06
1.1526970866e+03 5.8841495978e-06
1.1634157113e+03 5.5255977882e-06
1.1741343360e+03 5.1527557102e-06
1.1848529607e+03 4.7622515193e-06
1.1955715853e+03 4.3718282975e-06
1.2062902100e+03 3.9824064768e-06
1.2170088347e+03 3.6042525012e-06
1.2277274594e+03 3.2311765696e-06
1.2384460841e+03 2.8622919956e-06
1.2491647088e+03 2.4890438939e-06
1.2598833335e+03 2.1090571111e-06
1.2706019582e+03 1.7191862597e-06
1.2813205828e+03 1.3209741339e-06
1.2920392075e+03 9.2078921175e-07
1.3027578322e+03 5.2684012398e-07
1.3134764569e+03 1.5311909193e-07
1.3241950816e+03 -1.9284884667e-07
1.3349137063e+03 -5.0121514668e-07
1.3456323310e+03 -7.7417204689e-07
1.3563509557e+03 -1.0096275576e-06
1.3670695803e+03 -1.2181579391e-06
1.3777882050e+03 -1.4024116414e-06
1.3885068297e+03 -1.5787579520e-06
1.3992254544e+03 -1.7506004541e-06
1.4099440791e+03 -1.9327234360e-06
1.4206627038e+03 -2.1204596447e-06
1.4313813285e+03 -2.3211854682e-06
1.4420999532e+03 -2.5252460320e-06
1.4528185779e+03 -2.7399806709e-06
1.4635372025e+03 -2.9556200505e-06
1.4742558272e+03 -3.1759841438e-06
1.4849744519e+03 -3.3875493285e-06
1.4956930766e+03 -3.5932461695e-06
1.5064117013e+03 -3.7871764206e-06
1.5171303260e+03 -3.9798540127e-06
1.5278489507e+03 -4.1717343042e-06
1.5385675754e+03 -4.3700598435e-06
1.5492862000e+03 -4.5721902934e-06
1.5600048247e+03 -4.7808534879e-06
1.5707234494e+03 -4.9958950841e-06
1.5814420741e+03 -5.2201870844e-06
1.5921606988e+03 -5.4545498196e-06
1.6028793235e+03 -5.6970049705e-06
1.6135979482e+03 -5.9434880514e-06
1.6243165729e+03 -6.1851524871e-06
1.6350351976e+03 -6.4147056738e-06
1.6457538222e+03 -6.6246066341e-06
1.6564724469e+03 -6.8175217357e-06
1.6671910716e+03 -6.9988451869e-06
1.6779096963e+03 -7.1821366599e-06
1.6886283210e+03 -7.3748554206e-06
1.6993469457e+03 -7.5854777764e-06
1.7100655704e+03 -7.8137712843e-06
1.7207841951e+03 -8.0598005649e-06
1.7315028197e+03 -8.3208032325e-06
1.7422214444e+03 -8.5951251348e-06
1.7529400691e+03 -8.8857964091e-06
1.7636586938e+03 -9.1924773540e-06
1.7743773185e+03 -9.5228656264e-06
1.7850959432e+03 -9.8730862526e-06
1.7958145679e+03 -1.0251218979e-05
1.8065331926e+03 -1.0646288603e-05
1.8172518173e+03 -1.1065350292e-05
1.8279704419e+03 -1.1488837312e-05
1.8386890666e+03 -1.1924386528e-05
1.8494076913e+03 -1.2348082917e-05
1.8601263160e+03 -1.2776168801e-05
1.8708449407e+03 -1.3187896220e-05
1.8815635654e+03 -1.3608408722e-05
1.8922821901e+03 -1.4012412152e-05
1.9030008148e+03 -1.4420633530e-05
1.9137194394e+03 -1.4798378501e-05
1.9244380641e+03 -1.5167194051e-05
1.9351566888e+03 -1.5498578188e-05
1.9458753135e+03 -1.5825101427e-05
1.9565939382e+03 -1.6126048747e-05
1.9673125629e+03 -1.6434675858e-05
1.9780311876e+03 -1.6728742965e-05
1.9887498123e+03 -1.7034474602e-05
1.9994684369e+03 -1.7329558379e-05
2.0101870616e+03 -1.7632712879e-05
2.0209056863e+03 -1.7923727208e-05
2.0316243110e+03 -1.8210180067e-05
2.0423429357e+03 -1.8478556703e-05
2.0530615604e+03 -1.8729891789e-05
2.0637801851e+03 -1.8972497529e-05
2.0744988098e+03 -1.9203855662e-05
2.0852174345e+03 -1.9454739072e-05
2.0959360591e+03 -1.9701878371e-05
2.1066546838e+03 -1.9987497988e-05
2.1173733085e+03 -2.0257268169e-05
2.1280919332e+03 -2.0567657716e-05
2.1388105579e+03 -2.0841518060e-05
2.1495291826e+03 -2.1158076773e-05
2.1602478073e+03 -2.1426916151e-05
2.1709664320e+03 -2.1744827759e-05
2.1816850566e+03 -2.2009815439e-05
2.1924036813e+03 -2.2325182517e-05
2.2031223060e+03 -2.2588691801e-05
2.2138409307e+03 -2.2904532179e-05
2.2245595554e+03 -2.3178917804e-05
2.2352781801e+03 -2.3500281085e-05
2.2459968048e+03 -2.3783518003e-05
2.2567154295e+03 -2.4089451768e-05
2.2674340542e+03 -2.4355798584e-05
2.2781526788e+03 -2.4617884041e-05
2.2888713035e+03 -2.4853001030e-05
2.2995899282e+03 -2.5065054865e-05
2.3103085529e+03 -2.5272900802e-05
2.3210271776e+03 -2.5439547284e-05
2.3317458023e+03 -2.5627449514e-05
2.3424644270e+03 -2.5758926219e-05
2.3531830517e+03 -2.5940153193e-05
2.3639016763e+03 -2.6052781155e-05
2.3746203010e+03 -2.6240794931e-05
2.3853389257e+03 -2.6352673815e-05
2.3960575504e+03 -2.6569120115e-05
2.4067761751e+03 -2.6717815055e-05
2.4174947998e+03 -2.7002099101e-05
2.4282134245e+03 -2.7227743197e-05
2.4389320492e+03 -2.7596066769e-05
2.4496506739e+03 -2.7898853334e-05
2.4603692985e+03 -2.8324792005e-05
2.4710879232e+03 -2.8675388879e-05
2.4818065479e+03 -2.9119638763e-05
2.4925251726e+03 -2.9490696361e-05
2.5032437973e+03 -2.9921652348e-05
2.5139624220e+03 -3.0294235799e-05
2.5246810467e+03 -3.0684364359e-05
2.5353996714e+03 -3.1046731491e-05
2.5461182960e+03 -3.1380146950e-05
2.5568369207e+03 -3.1743877591e-05
2.5675555454e+03 -3.2022083935e-05
2.5782741701e+03 -3.2405622332e-05
2.5889927948e+03 -3.2605250159e-05
2.5997114195e+03 -3.2990536802e-05
2.6104300442e+03 -3.3048422041e-05
2.6211486689e+03 -3.3409795476e-05
2.6318672935e+03 -3.3290575248e-05
2.6425859182e+03 -3.3658766274e-05
2.6533045429e+03 -3.3398428007e-05
2.6640231676e+03 -3.3849347841e-05
2.6747417923e+03 -3.3532016474e-05
2.6854604170e+03 -3.4133614770e-05
2.6961790417e+03 -3.3874610530e-05
2.7068976664e+03 -3.4648190864e-05
2.7176162911e+03 -3.4582618076e-05
2.7283349157e+03 -3.5466563601e-05
2.7390535404e+03 -3.5702808784e-05
2.7497721651e+03 -3.6545837819e-05
2.7604907898e+03 -3.7061629319e-05
