# Rotated Reynolds stress Morkovin's scaling
# Columns: y_plus    rho u''u''rotated/tau_wall
3.9100267708e-01 2.4756506689e-02
1.1669246953e+00 2.1900049838e-01
1.9435303622e+00 5.9941782403e-01
2.7210037404e+00 1.1488219555e+00
3.4995481111e+00 1.8330773434e+00
4.2793829765e+00 2.6033422448e+00
5.0607410474e+00 3.4053897206e+00
5.8438654524e+00 4.1894623144e+00
6.6290073199e+00 4.9170514037e+00
7.4164238012e+00 5.5628647491e+00
8.2063765381e+00 6.1140313155e+00
8.9991305383e+00 6.5673248443e+00
9.7949533913e+00 6.9263875415e+00
1.0594114757e+01 7.1988615602e+00
1.1396886058e+01 7.3944450415e+00
1.2203540314e+01 7.5233876834e+00
1.3014352078e+01 7.5957769343e+00
1.3829597436e+01 7.6210139662e+00
1.4649554046e+01 7.6076162392e+00
1.5474501205e+01 7.5630309686e+00
1.6304719923e+01 7.4936206536e+00
1.7140493017e+01 7.4047101059e+00
1.7982105198e+01 7.3007477042e+00
1.8829843169e+01 7.1854542946e+00
1.9683995721e+01 7.0619243250e+00
2.0544853828e+01 6.9326735184e+00
2.1412710751e+01 6.7996854504e+00
2.2287862134e+01 6.6644926365e+00
2.3170606107e+01 6.5282798229e+00
2.4061243385e+01 6.3919780245e+00
2.4960077373e+01 6.2563464777e+00
2.5867414268e+01 6.1220445971e+00
2.6783563163e+01 5.9896974078e+00
2.7708836155e+01 5.8598801711e+00
2.8643548447e+01 5.7330756273e+00
2.9588018458e+01 5.6096185251e+00
3.0542567932e+01 5.4897394858e+00
3.1507522046e+01 5.3736040499e+00
3.2483209521e+01 5.2613636217e+00
3.3469962736e+01 5.1531080605e+00
3.4468117838e+01 5.0488726355e+00
3.5478014859e+01 4.9486077223e+00
3.6499997830e+01 4.8522126377e+00
3.7534414901e+01 4.7595014421e+00
3.8581618456e+01 4.6702559209e+00
3.9641965236e+01 4.5842516639e+00
4.0715816460e+01 4.5013773506e+00
4.1803537945e+01 4.4216219857e+00
4.2905500235e+01 4.3450557422e+00
4.4022078725e+01 4.2716999129e+00
4.5153653789e+01 4.2015077977e+00
4.6300610910e+01 4.1343346750e+00
4.7463340810e+01 4.0700165939e+00
4.8642239585e+01 4.0083665817e+00
4.9837708839e+01 3.9492262199e+00
5.1050155822e+01 3.8924130990e+00
5.2279993564e+01 3.8377775566e+00
5.3527641025e+01 3.7851856372e+00
5.4793523226e+01 3.7345235990e+00
5.6078071405e+01 3.6856268512e+00
5.7381723156e+01 3.6383543261e+00
5.8704922581e+01 3.5926148521e+00
6.0048120441e+01 3.5484103141e+00
6.1411774312e+01 3.5057440618e+00
6.2796348734e+01 3.4646273513e+00
6.4202315379e+01 3.4250582558e+00
6.5630153203e+01 3.3870605717e+00
6.7080348613e+01 3.3505831178e+00
6.8553395635e+01 3.3155211038e+00
7.0049796075e+01 3.2817428895e+00
7.1570059699e+01 3.2491740205e+00
7.3114704399e+01 3.2178063092e+00
7.4684256376e+01 3.1876547059e+00
7.6279250313e+01 3.1586119283e+00
7.7900229560e+01 3.1304751027e+00
7.9547746322e+01 3.1030144321e+00
8.1222361842e+01 3.0761578328e+00
8.2924646595e+01 3.0499400634e+00
8.4655180482e+01 3.0243564120e+00
8.6414553026e+01 2.9992924441e+00
8.8203363577e+01 2.9746500806e+00
9.0022221510e+01 2.9504130124e+00
9.1871746439e+01 2.9266815934e+00
9.3752568424e+01 2.9034900133e+00
9.5665328185e+01 2.8806415687e+00
9.7610677324e+01 2.8578360418e+00
9.9589278544e+01 2.8349894908e+00
1.0160180588e+02 2.8120992697e+00
1.0364894491e+02 2.7891127532e+00
1.0573139302e+02 2.7659333709e+00
1.0784985962e+02 2.7424627370e+00
1.1000506638e+02 2.7187410881e+00
1.1219774750e+02 2.6950644843e+00
1.1442864993e+02 2.6715705178e+00
1.1669853366e+02 2.6481359005e+00
1.1900817195e+02 2.6246499227e+00
1.2135835159e+02 2.6011193447e+00
1.2374987321e+02 2.5775796024e+00
1.2618355149e+02 2.5541678852e+00
1.2866021550e+02 2.5310017492e+00
1.3118070893e+02 2.5081973092e+00
1.3374589042e+02 2.4859174001e+00
1.3635663383e+02 2.4641330115e+00
1.3901382852e+02 2.4424974277e+00
1.4171837970e+02 2.4204685414e+00
1.4447120871e+02 2.3977942847e+00
1.4727325332e+02 2.3746442895e+00
1.5012546808e+02 2.3510798132e+00
1.5302882462e+02 2.3269490163e+00
1.5598431200e+02 2.3018873760e+00
1.5899293705e+02 2.2756657392e+00
1.6205572468e+02 2.2484524041e+00
1.6517371825e+02 2.2204356236e+00
1.6834797995e+02 2.1918921087e+00
1.7157959112e+02 2.1634836927e+00
1.7486965264e+02 2.1355225536e+00
1.7821928531e+02 2.1078017173e+00
1.8162963021e+02 2.0797719051e+00
1.8510184912e+02 2.0510632796e+00
1.8863712487e+02 2.0218047321e+00
1.9223666179e+02 1.9922938052e+00
1.9590168612e+02 1.9628865324e+00
1.9963344636e+02 1.9335642329e+00
2.0343321380e+02 1.9044019868e+00
2.0730228285e+02 1.8752114657e+00
2.1124197156e+02 1.8452755606e+00
2.1525362201e+02 1.8142261378e+00
2.1933860083e+02 1.7822793058e+00
2.2349829959e+02 1.7498189864e+00
2.2773413535e+02 1.7168442992e+00
2.3204755109e+02 1.6833917546e+00
2.3644001621e+02 1.6496899212e+00
2.4091302705e+02 1.6156795424e+00
2.4546810739e+02 1.5808628626e+00
2.5010680897e+02 1.5453339373e+00
2.5483071201e+02 1.5090783937e+00
2.5964142574e+02 1.4721585310e+00
2.6454058900e+02 1.4347076654e+00
2.6952987074e+02 1.3961974661e+00
2.7461097059e+02 1.3569599724e+00
2.7978561950e+02 1.3172959998e+00
2.8505558025e+02 1.2770160626e+00
2.9042264812e+02 1.2368332053e+00
2.9588865145e+02 1.1965319475e+00
3.0145545230e+02 1.1555244676e+00
3.0712494704e+02 1.1146965995e+00
3.1289906706e+02 1.0740154415e+00
3.1877977936e+02 1.0326841575e+00
3.2476908727e+02 9.9043533967e-01
3.3086903110e+02 9.4709005777e-01
3.3708168886e+02 9.0253343108e-01
3.4340917693e+02 8.5704662082e-01
3.4985365079e+02 8.1118781912e-01
3.5641730571e+02 7.6455180041e-01
3.6310237742e+02 7.1679020661e-01
3.6991114271e+02 6.6854609011e-01
3.7684591986e+02 6.2040592524e-01
3.8390906882e+02 5.7256723122e-01
3.9110299071e+02 5.2542944617e-01
3.9843012636e+02 4.7883379345e-01
4.0589295306e+02 4.3331066512e-01
4.1349397829e+02 3.8826328699e-01
4.2123572889e+02 3.4401465143e-01
4.2912073304e+02 3.0164223638e-01
4.3715149217e+02 2.6175500947e-01
4.4533043852e+02 2.2463805125e-01
4.5365987429e+02 1.9066299154e-01
4.6214188770e+02 1.6040908280e-01
4.7077824235e+02 1.3386452213e-01
4.7957023817e+02 1.1068292749e-01
4.8851854519e+02 9.0813570047e-02
4.9762301594e+02 7.3869502869e-02
5.0688248733e+02 5.9742398263e-02
5.1629458829e+02 4.8326466848e-02
5.2585557360e+02 3.9112368268e-02
5.3556020708e+02 3.1708626215e-02
5.4540171575e+02 2.5757087745e-02
5.5537183282e+02 2.1162337594e-02
5.6546093828e+02 1.7635299179e-02
5.7565829575e+02 1.4808673558e-02
5.8595237151e+02 1.2511998425e-02
5.9633121136e+02 1.0677958808e-02
6.0678284256e+02 9.1269202703e-03
6.1729566514e+02 7.8268213156e-03
6.2785879892e+02 6.7907823703e-03
6.3846235889e+02 5.9459414028e-03
6.4909764242e+02 5.2421239749e-03
6.5975722295e+02 4.6426718300e-03
6.7043495588e+02 4.1284642299e-03
6.8112591136e+02 3.7092636009e-03
6.9182625336e+02 3.3402141801e-03
7.0253308669e+02 3.0130688063e-03
7.1324429176e+02 2.7317012966e-03
7.2395836319e+02 2.4874586893e-03
7.3467426374e+02 2.2726849752e-03
7.4539130004e+02 2.0833652161e-03
7.5610902239e+02 1.9161608745e-03
7.6682714778e+02 1.7677691526e-03
7.7754550345e+02 1.6350431975e-03
7.8826398703e+02 1.5160754675e-03
7.9898253968e+02 1.4091643639e-03
8.0970112858e+02 1.3128063212e-03
8.2041973597e+02 1.2257495267e-03
8.3113835253e+02 1.1468458695e-03
8.4185697350e+02 1.0751650421e-03
8.5257559653e+02 1.0098506539e-03
8.6329422051e+02 9.5023166362e-04
8.7401284489e+02 8.9567658282e-04
8.8473146946e+02 8.4569911989e-04
8.9545009410e+02 7.9980893494e-04
9.0616871877e+02 7.5763083334e-04
9.1688734345e+02 7.1878482801e-04
9.2760596814e+02 6.8298895087e-04
9.3832459282e+02 6.4994471112e-04
9.4904321751e+02 6.1942688051e-04
9.5976184220e+02 5.9117875749e-04
9.7048046689e+02 5.6502034841e-04
9.8119909158e+02 5.4073796847e-04
9.9191771626e+02 5.1820433464e-04
1.0026363410e+03 4.9724797687e-04
1.0133549656e+03 4.7777743358e-04
1.0240735903e+03 4.5964170497e-04
1.0347922150e+03 4.4276821368e-04
1.0455108397e+03 4.2701816398e-04
1.0562294644e+03 4.1234127016e-04
1.0669480891e+03 3.9861249781e-04
1.0776667138e+03 3.8580340720e-04
1.0883853385e+03 3.7380163063e-04
1.0991039631e+03 3.6259686976e-04
1.1098225878e+03 3.5208773971e-04
1.1205412125e+03 3.4227408090e-04
1.1312598372e+03 3.3305834691e-04
1.1419784619e+03 3.2444304915e-04
1.1526970866e+03 3.1633189689e-04
1.1634157113e+03 3.0872799109e-04
1.1741343360e+03 3.0153629519e-04
1.1848529607e+03 2.9475905392e-04
1.1955715853e+03 2.8830899582e-04
1.2062902100e+03 2.8219723060e-04
1.2170088347e+03 2.7635555981e-04
1.2277274594e+03 2.7080708141e-04
1.2384460841e+03 2.6549767239e-04
1.2491647088e+03 2.6045248157e-04
1.2598833335e+03 2.5562355212e-04
1.2706019582e+03 2.5103337531e-04
1.2813205828e+03 2.4664189300e-04
1.2920392075e+03 2.4246994905e-04
1.3027578322e+03 2.3848722288e-04
1.3134764569e+03 2.3471251790e-04
1.3241950816e+03 2.3112784877e-04
1.3349137063e+03 2.2775635209e-04
1.3456323310e+03 2.2459837988e-04
1.3563509557e+03 2.2167673985e-04
1.3670695803e+03 2.1898844808e-04
1.3777882050e+03 2.1653071825e-04
1.3885068297e+03 2.1428501954e-04
1.3992254544e+03 2.1223348624e-04
1.4099440791e+03 2.1035901379e-04
1.4206627038e+03 2.0864080225e-04
1.4313813285e+03 2.0706428406e-04
1.4420999532e+03 2.0560412187e-04
1.4528185779e+03 2.0424789005e-04
1.4635372025e+03 2.0296999463e-04
1.4742558272e+03 2.0176576038e-04
1.4849744519e+03 2.0061417709e-04
1.4956930766e+03 1.9951853099e-04
1.5064117013e+03 1.9846162423e-04
1.5171303260e+03 1.9745321115e-04
1.5278489507e+03 1.9648018843e-04
1.5385675754e+03 1.9555835589e-04
1.5492862000e+03 1.9467760459e-04
1.5600048247e+03 1.9385721802e-04
1.5707234494e+03 1.9308529801e-04
1.5814420741e+03 1.9237906697e-04
1.5921606988e+03 1.9171975059e-04
1.6028793235e+03 1.9112113425e-04
1.6135979482e+03 1.9056004927e-04
1.6243165729e+03 1.9005102966e-04
1.6350351976e+03 1.8957207638e-04
1.6457538222e+03 1.8913996284e-04
1.6564724469e+03 1.8873594256e-04
1.6671910716e+03 1.8837708338e-04
1.6779096963e+03 1.8804906726e-04
1.6886283210e+03 1.8776729779e-04
1.6993469457e+03 1.8752047685e-04
1.7100655704e+03 1.8731663263e-04
1.7207841951e+03 1.8714229985e-04
1.7315028197e+03 1.8699478371e-04
1.7422214444e+03 1.8686056143e-04
1.7529400691e+03 1.8673262986e-04
1.7636586938e+03 1.8660508818e-04
1.7743773185e+03 1.8647123168e-04
1.7850959432e+03 1.8633217409e-04
1.7958145679e+03 1.8617865571e-04
1.8065331926e+03 1.8601595836e-04
1.8172518173e+03 1.8583400546e-04
1.8279704419e+03 1.8564463695e-04
1.8386890666e+03 1.8544017488e-04
1.8494076913e+03 1.8523907035e-04
1.8601263160e+03 1.8503409303e-04
1.8708449407e+03 1.8484624581e-04
1.8815635654e+03 1.8466162098e-04
1.8922821901e+03 1.8449915375e-04
1.9030008148e+03 1.8433259176e-04
1.9137194394e+03 1.8418255401e-04
1.9244380641e+03 1.8401255285e-04
1.9351566888e+03 1.8385515139e-04
1.9458753135e+03 1.8366659358e-04
1.9565939382e+03 1.8350052294e-04
1.9673125629e+03 1.8330372808e-04
1.9780311876e+03 1.8315297695e-04
1.9887498123e+03 1.8297483288e-04
1.9994684369e+03 1.8286555161e-04
2.0101870616e+03 1.8271934477e-04
2.0209056863e+03 1.8265158773e-04
2.0316243110e+03 1.8251832790e-04
2.0423429357e+03 1.8246161329e-04
2.0530615604e+03 1.8230120577e-04
2.0637801851e+03 1.8221827332e-04
2.0744988098e+03 1.8200008931e-04
2.0852174345e+03 1.8187409174e-04
2.0959360591e+03 1.8159444437e-04
2.1066546838e+03 1.8143099796e-04
2.1173733085e+03 1.8110610036e-04
2.1280919332e+03 1.8092652996e-04
2.1388105579e+03 1.8059632056e-04
2.1495291826e+03 1.8044825658e-04
2.1602478073e+03 1.8018027911e-04
2.1709664320e+03 1.8012290861e-04
2.1816850566e+03 1.7998184426e-04
2.1924036813e+03 1.8005931686e-04
2.2031223060e+03 1.8010217329e-04
2.2138409307e+03 1.8036824963e-04
2.2245595554e+03 1.8068277473e-04
2.2352781801e+03 1.8123207718e-04
2.2459968048e+03 1.8194134801e-04
2.2567154295e+03 1.8288877440e-04
2.2674340542e+03 1.8411765758e-04
2.2781526788e+03 1.8556830198e-04
2.2888713035e+03 1.8741692574e-04
2.2995899282e+03 1.8943401809e-04
2.3103085529e+03 1.9192534000e-04
2.3210271776e+03 1.9445930580e-04
2.3317458023e+03 1.9746658915e-04
2.3424644270e+03 2.0030929531e-04
2.3531830517e+03 2.0355509294e-04
2.3639016763e+03 2.0638082259e-04
2.3746203010e+03 2.0950311434e-04
2.3853389257e+03 2.1194190666e-04
2.3960575504e+03 2.1457187642e-04
2.4067761751e+03 2.1629518015e-04
2.4174947998e+03 2.1815411475e-04
2.4282134245e+03 2.1897012223e-04
2.4389320492e+03 2.1994338124e-04
2.4496506739e+03 2.1983261656e-04
2.4603692985e+03 2.1996617626e-04
2.4710879232e+03 2.1905377156e-04
2.4818065479e+03 2.1851904553e-04
2.4925251726e+03 2.1704543305e-04
2.5032437973e+03 2.1611094780e-04
2.5139624220e+03 2.1440476683e-04
2.5246810467e+03 2.1340152303e-04
2.5353996714e+03 2.1184698500e-04
2.5461182960e+03 2.1113272348e-04
2.5568369207e+03 2.1014229843e-04
2.5675555454e+03 2.1008250615e-04
2.5782741701e+03 2.1010423809e-04
2.5889927948e+03 2.1111243591e-04
2.5997114195e+03 2.1270047835e-04
2.6104300442e+03 2.1533284876e-04
2.6211486689e+03 2.1922450097e-04
2.6318672935e+03 2.2423670033e-04
2.6425859182e+03 2.3131144789e-04
2.6533045429e+03 2.3953299218e-04
2.6640231676e+03 2.5048948976e-04
2.6747417923e+03 2.6235473942e-04
2.6854604170e+03 2.7699914479e-04
2.6961790417e+03 2.9172972017e-04
2.7068976664e+03 3.0808304332e-04
2.7176162911e+03 3.2296771907e-04
2.7283349157e+03 3.3696506136e-04
2.7390535404e+03 3.4768358252e-04
2.7497721651e+03 3.5454398287e-04
2.7604907898e+03 3.5803491871e-04
