# Two-point auto-correlation R_11 (Cartesian) — case DNS_re250_mr06_11 (MR06), y^+ = 15
# Definition: R_{ij}(Δz; y) = < u_i''(x,y,z) u_j''(x,y,z+Δz) > / < u_i''(x,y,z)^2 >
# Columns: delta_z_plus    R
0.0000000000e+00 1.0000000000e+00
3.6952202740e+00 9.7032374158e-01
7.3904405480e+00 8.9016395474e-01
1.1085660822e+01 7.7885333470e-01
1.4780881096e+01 6.5462397690e-01
1.8476101370e+01 5.3013606492e-01
2.2171321644e+01 4.1306928921e-01
2.5866541918e+01 3.0756411759e-01
2.9561762192e+01 2.1547035983e-01
3.3256982466e+01 1.3717912852e-01
3.6952202740e+01 7.2166792295e-02
4.0647423014e+01 1.9430547670e-02
4.4342643288e+01 -2.2261851689e-02
4.8037863562e+01 -5.4270394203e-02
5.1733083836e+01 -7.7993771312e-02
5.5428304110e+01 -9.4776980148e-02
5.9123524384e+01 -1.0585364822e-01
6.2818744658e+01 -1.1233865964e-01
6.6513964932e+01 -1.1523399440e-01
7.0209185206e+01 -1.1540910942e-01
7.3904405480e+01 -1.1357698233e-01
7.7599625754e+01 -1.1028585111e-01
8.1294846028e+01 -1.0592480933e-01
8.4990066302e+01 -1.0076267237e-01
8.8685286576e+01 -9.5023510590e-02
9.2380506850e+01 -8.8944798018e-02
9.6075727124e+01 -8.2773436085e-02
9.9770947398e+01 -7.6725753581e-02
1.0346616767e+02 -7.0960781248e-02
1.0716138795e+02 -6.5583371435e-02
1.1085660822e+02 -6.0671613544e-02
1.1455182849e+02 -5.6303118274e-02
1.1824704877e+02 -5.2546911439e-02
1.2194226904e+02 -4.9431385580e-02
1.2563748932e+02 -4.6928548183e-02
1.2933270959e+02 -4.4957595375e-02
1.3302792986e+02 -4.3388106996e-02
1.3672315014e+02 -4.2060757621e-02
1.4041837041e+02 -4.0831144115e-02
1.4411359069e+02 -3.9591361590e-02
1.4780881096e+02 -3.8255086496e-02
1.5150403123e+02 -3.6768330849e-02
1.5519925151e+02 -3.5157931134e-02
1.5889447178e+02 -3.3535770971e-02
1.6258969206e+02 -3.2029336444e-02
1.6628491233e+02 -3.0711682254e-02
1.6998013260e+02 -2.9598644151e-02
1.7367535288e+02 -2.8694615340e-02
1.7737057315e+02 -2.8016139655e-02
1.8106579343e+02 -2.7581422236e-02
1.8476101370e+02 -2.7403265319e-02
1.8845623397e+02 -2.7480901749e-02
1.9215145425e+02 -2.7788731879e-02
1.9584667452e+02 -2.8281171245e-02
1.9954189480e+02 -2.8889007213e-02
2.0323711507e+02 -2.9501543497e-02
2.0693233534e+02 -2.9990570398e-02
2.1062755562e+02 -3.0274032121e-02
2.1432277589e+02 -3.0344281839e-02
2.1801799617e+02 -3.0239271660e-02
2.2171321644e+02 -2.9990829559e-02
2.2540843671e+02 -2.9586205017e-02
2.2910365699e+02 -2.8979871403e-02
2.3279887726e+02 -2.8151511137e-02
2.3649409754e+02 -2.7145909588e-02
2.4018931781e+02 -2.6054816764e-02
2.4388453808e+02 -2.4972593601e-02
2.4757975836e+02 -2.3966105102e-02
2.5127497863e+02 -2.3066113292e-02
2.5497019891e+02 -2.2277388129e-02
2.5866541918e+02 -2.1600938907e-02
2.6236063945e+02 -2.1046689528e-02
2.6605585973e+02 -2.0616992181e-02
2.6975108000e+02 -2.0286644239e-02
2.7344630028e+02 -2.0012320478e-02
2.7714152055e+02 -1.9747800968e-02
2.8083674082e+02 -1.9434130354e-02
2.8453196110e+02 -1.8981556778e-02
2.8822718137e+02 -1.8279659382e-02
2.9192240165e+02 -1.7244243824e-02
2.9561762192e+02 -1.5872346400e-02
2.9931284219e+02 -1.4272664006e-02
3.0300806247e+02 -1.2638507520e-02
3.0670328274e+02 -1.1151547775e-02
3.1039850302e+02 -9.8869673508e-03
3.1409372329e+02 -8.7994191633e-03
3.1778894356e+02 -7.7697444027e-03
3.2148416384e+02 -6.6668841633e-03
3.2517938411e+02 -5.4081154307e-03
3.2887460439e+02 -3.9847053562e-03
3.3256982466e+02 -2.4499348873e-03
3.3626504493e+02 -9.0709823125e-04
3.3996026521e+02 5.0946129108e-04
3.4365548548e+02 1.6800311079e-03
3.4735070576e+02 2.5388135754e-03
3.5104592603e+02 3.0731872406e-03
3.5474114630e+02 3.2925515020e-03
3.5843636658e+02 3.2011658789e-03
3.6213158685e+02 2.7986471762e-03
3.6582680713e+02 2.0959142609e-03
3.6952202740e+02 1.1314962688e-03
3.7321724767e+02 -1.6181056402e-05
3.7691246795e+02 -1.2405051987e-03
3.8060768822e+02 -2.4401088685e-03
3.8430290850e+02 -3.5397490446e-03
3.8799812877e+02 -4.4850820181e-03
3.9169334904e+02 -5.2311412140e-03
3.9538856932e+02 -5.7423705441e-03
3.9908378959e+02 -5.9930381469e-03
4.0277900987e+02 -5.9626555207e-03
4.0647423014e+02 -5.6539647809e-03
4.1016945041e+02 -5.1237513985e-03
4.1386467069e+02 -4.4702912325e-03
4.1755989096e+02 -3.7777164269e-03
4.2125511124e+02 -3.0691855983e-03
4.2495033151e+02 -2.3052116810e-03
4.2864555178e+02 -1.4336801872e-03
4.3234077206e+02 -4.4809050450e-04
4.3603599233e+02 6.0285510062e-04
4.3973121261e+02 1.6535536183e-03
4.4342643288e+02 2.6691733970e-03
4.4712165315e+02 3.6643747712e-03
4.5081687343e+02 4.6732171677e-03
4.5451209370e+02 5.6950795179e-03
4.5820731398e+02 6.6653631544e-03
4.6190253425e+02 7.4823964405e-03
4.6559775452e+02 8.0636467497e-03
4.6929297480e+02 8.3737092581e-03
4.7298819507e+02 8.4169609019e-03
4.7668341534e+02 8.2242351566e-03
4.8037863562e+02 7.8440604613e-03
4.8407385589e+02 7.3447655632e-03
4.8776907617e+02 6.8163253473e-03
4.9146429644e+02 6.3497033552e-03
4.9515951671e+02 6.0123169954e-03
4.9885473699e+02 5.8467829344e-03
5.0254995726e+02 5.8789661873e-03
5.0624517754e+02 6.1091136356e-03
5.0994039781e+02 6.4999038263e-03
5.1363561808e+02 6.9952202688e-03
5.1733083836e+02 7.5525707345e-03
5.2102605863e+02 8.1355210181e-03
5.2472127891e+02 8.6771490420e-03
5.2841649918e+02 9.0744900883e-03
5.3211171945e+02 9.2276149544e-03
5.3580693973e+02 9.0870187954e-03
5.3950216000e+02 8.6655036699e-03
5.4319738028e+02 8.0076958758e-03
5.4689260055e+02 7.1606539733e-03
5.5058782082e+02 6.1697425442e-03
5.5428304110e+02 5.0810724261e-03
5.5797826137e+02 3.9413743638e-03
5.6167348165e+02 2.8082277836e-03
5.6536870192e+02 1.7637042473e-03
5.6906392219e+02 9.0956311972e-04
5.7275914247e+02 3.3691853043e-04
5.7645436274e+02 7.8360811854e-05
5.8014958302e+02 7.4569454234e-05
5.8384480329e+02 1.9088171767e-04
5.8754002356e+02 2.7726301236e-04
5.9123524384e+02 2.2531252794e-04
5.9493046411e+02 -1.9253832672e-05
5.9862568439e+02 -4.7533487384e-04
6.0232090466e+02 -1.1381625678e-03
6.0601612493e+02 -1.9763814703e-03
6.0971134521e+02 -2.9237894442e-03
6.1340656548e+02 -3.8718917562e-03
6.1710178576e+02 -4.6785204127e-03
6.2079700603e+02 -5.2096043177e-03
6.2449222630e+02 -5.3883202373e-03
6.2818744658e+02 -5.1953216593e-03
6.3188266685e+02 -4.6335752801e-03
6.3557788713e+02 -3.7371613051e-03
6.3927310740e+02 -2.6136562840e-03
6.4296832767e+02 -1.4328100993e-03
6.4666354795e+02 -3.6282233969e-04
6.5035876822e+02 4.8231723712e-04
6.5405398850e+02 1.0570107173e-03
6.5774920877e+02 1.3629093764e-03
6.6144442904e+02 1.4306127746e-03
6.6513964932e+02 1.3247258605e-03
6.6883486959e+02 1.1306650184e-03
6.7253008987e+02 9.1995797233e-04
6.7622531014e+02 7.4004938216e-04
6.7992053041e+02 6.2459682002e-04
6.8361575069e+02 5.9397735293e-04
6.8731097096e+02 6.4775005984e-04
6.9100619124e+02 7.5672800972e-04
6.9470141151e+02 8.6297114529e-04
6.9839663178e+02 8.9510568259e-04
7.0209185206e+02 7.9016744371e-04
7.0578707233e+02 5.1410767060e-04
7.0948229261e+02 7.9462397628e-05
7.1317751288e+02 -4.5569739213e-04
7.1687273315e+02 -1.0157083604e-03
7.2056795343e+02 -1.5363477996e-03
7.2426317370e+02 -1.9787852781e-03
7.2795839398e+02 -2.3318382533e-03
7.3165361425e+02 -2.6022068783e-03
7.3534883452e+02 -2.8004244230e-03
7.3904405480e+02 -2.9316316112e-03
7.4273927507e+02 -2.9919391218e-03
7.4643449535e+02 -2.9701082919e-03
7.5012971562e+02 -2.8622649273e-03
7.5382493589e+02 -2.6971305226e-03
7.5752015617e+02 -2.5404266835e-03
7.6121537644e+02 -2.4643939398e-03
7.6491059672e+02 -2.5048107510e-03
7.6860581699e+02 -2.6325676051e-03
7.7230103726e+02 -2.7649580167e-03
7.7599625754e+02 -2.8129844321e-03
7.7969147781e+02 -2.7247137157e-03
7.8338669809e+02 -2.4936699411e-03
7.8708191836e+02 -2.1297423979e-03
7.9077713863e+02 -1.6302417382e-03
7.9447235891e+02 -9.8892126510e-04
7.9816757918e+02 -2.1662988398e-04
8.0186279946e+02 6.6270841938e-04
8.0555801973e+02 1.6206046531e-03
8.0925324000e+02 2.6177066285e-03
8.1294846028e+02 3.6048970087e-03
8.1664368055e+02 4.5435283853e-03
8.2033890083e+02 5.4181151296e-03
8.2403412110e+02 6.2218526292e-03
8.2772934137e+02 6.9434628317e-03
8.3142456165e+02 7.5846354853e-03
8.3511978192e+02 8.1787203055e-03
8.3881500220e+02 8.7688409579e-03
8.4251022247e+02 9.3663265979e-03
8.4620544274e+02 9.9425289840e-03
8.4990066302e+02 1.0451331947e-02
8.5359588329e+02 1.0838797378e-02
8.5729110357e+02 1.1043379794e-02
8.6098632384e+02 1.1006936558e-02
8.6468154411e+02 1.0684799927e-02
8.6837676439e+02 1.0057754451e-02
8.7207198466e+02 9.1611776889e-03
8.7576720494e+02 8.1023814182e-03
8.7946242521e+02 7.0332668546e-03
8.8315764548e+02 6.0920590891e-03
8.8685286576e+02 5.3520298596e-03
8.9054808603e+02 4.8036460087e-03
8.9424330631e+02 4.3704991615e-03
8.9793852658e+02 3.9437234149e-03
9.0163374685e+02 3.4140577919e-03
9.0532896713e+02 2.7026749306e-03
9.0902418740e+02 1.7959369215e-03
9.1271940768e+02 7.5291241624e-04
9.1641462795e+02 -3.2096539745e-04
9.2010984822e+02 -1.3092492341e-03
9.2380506850e+02 -2.1182521580e-03
9.2750028877e+02 -2.6977774115e-03
9.3119550905e+02 -3.0461340929e-03
9.3489072932e+02 -3.2060762371e-03
9.3858594959e+02 -3.2474027741e-03
9.4228116987e+02 -3.2398468105e-03
9.4597639014e+02 -3.2316987102e-03
9.4967161042e+02 -3.2398468105e-03
9.5336683069e+02 -3.2474027741e-03
9.5706205096e+02 -3.2060762371e-03
9.6075727124e+02 -3.0461340929e-03
9.6445249151e+02 -2.6977774115e-03
9.6814771179e+02 -2.1182521580e-03
9.7184293206e+02 -1.3092492341e-03
9.7553815233e+02 -3.2096539745e-04
9.7923337261e+02 7.5291241624e-04
9.8292859288e+02 1.7959369215e-03
9.8662381316e+02 2.7026749306e-03
9.9031903343e+02 3.4140577919e-03
9.9401425370e+02 3.9437234149e-03
9.9770947398e+02 4.3704991615e-03
1.0014046943e+03 4.8036460087e-03
1.0050999145e+03 5.3520298596e-03
1.0087951348e+03 6.0920590891e-03
1.0124903551e+03 7.0332668546e-03
1.0161855753e+03 8.1023814182e-03
1.0198807956e+03 9.1611776889e-03
1.0235760159e+03 1.0057754451e-02
1.0272712362e+03 1.0684799927e-02
1.0309664564e+03 1.1006936558e-02
1.0346616767e+03 1.1043379794e-02
1.0383568970e+03 1.0838797378e-02
1.0420521173e+03 1.0451331947e-02
1.0457473375e+03 9.9425289840e-03
1.0494425578e+03 9.3663265979e-03
1.0531377781e+03 8.7688409579e-03
1.0568329984e+03 8.1787203055e-03
1.0605282186e+03 7.5846354853e-03
1.0642234389e+03 6.9434628317e-03
1.0679186592e+03 6.2218526292e-03
1.0716138795e+03 5.4181151296e-03
1.0753090997e+03 4.5435283853e-03
1.0790043200e+03 3.6048970087e-03
1.0826995403e+03 2.6177066285e-03
1.0863947606e+03 1.6206046531e-03
1.0900899808e+03 6.6270841938e-04
1.0937852011e+03 -2.1662988398e-04
1.0974804214e+03 -9.8892126510e-04
1.1011756416e+03 -1.6302417382e-03
1.1048708619e+03 -2.1297423979e-03
1.1085660822e+03 -2.4936699411e-03
1.1122613025e+03 -2.7247137157e-03
1.1159565227e+03 -2.8129844321e-03
1.1196517430e+03 -2.7649580167e-03
1.1233469633e+03 -2.6325676051e-03
1.1270421836e+03 -2.5048107510e-03
1.1307374038e+03 -2.4643939398e-03
1.1344326241e+03 -2.5404266835e-03
1.1381278444e+03 -2.6971305226e-03
1.1418230647e+03 -2.8622649273e-03
1.1455182849e+03 -2.9701082919e-03
1.1492135052e+03 -2.9919391218e-03
1.1529087255e+03 -2.9316316112e-03
1.1566039458e+03 -2.8004244230e-03
1.1602991660e+03 -2.6022068783e-03
1.1639943863e+03 -2.3318382533e-03
1.1676896066e+03 -1.9787852781e-03
1.1713848269e+03 -1.5363477996e-03
1.1750800471e+03 -1.0157083604e-03
1.1787752674e+03 -4.5569739213e-04
1.1824704877e+03 7.9462397628e-05
1.1861657080e+03 5.1410767060e-04
1.1898609282e+03 7.9016744371e-04
1.1935561485e+03 8.9510568259e-04
1.1972513688e+03 8.6297114529e-04
1.2009465890e+03 7.5672800972e-04
1.2046418093e+03 6.4775005984e-04
1.2083370296e+03 5.9397735293e-04
1.2120322499e+03 6.2459682002e-04
1.2157274701e+03 7.4004938216e-04
1.2194226904e+03 9.1995797233e-04
1.2231179107e+03 1.1306650184e-03
1.2268131310e+03 1.3247258605e-03
1.2305083512e+03 1.4306127746e-03
1.2342035715e+03 1.3629093764e-03
1.2378987918e+03 1.0570107173e-03
1.2415940121e+03 4.8231723712e-04
1.2452892323e+03 -3.6282233969e-04
1.2489844526e+03 -1.4328100993e-03
1.2526796729e+03 -2.6136562840e-03
1.2563748932e+03 -3.7371613051e-03
1.2600701134e+03 -4.6335752801e-03
1.2637653337e+03 -5.1953216593e-03
1.2674605540e+03 -5.3883202373e-03
1.2711557743e+03 -5.2096043177e-03
1.2748509945e+03 -4.6785204127e-03
1.2785462148e+03 -3.8718917562e-03
1.2822414351e+03 -2.9237894442e-03
1.2859366553e+03 -1.9763814703e-03
1.2896318756e+03 -1.1381625678e-03
1.2933270959e+03 -4.7533487384e-04
1.2970223162e+03 -1.9253832672e-05
1.3007175364e+03 2.2531252794e-04
1.3044127567e+03 2.7726301236e-04
1.3081079770e+03 1.9088171767e-04
1.3118031973e+03 7.4569454234e-05
1.3154984175e+03 7.8360811854e-05
1.3191936378e+03 3.3691853043e-04
1.3228888581e+03 9.0956311972e-04
1.3265840784e+03 1.7637042473e-03
1.3302792986e+03 2.8082277836e-03
1.3339745189e+03 3.9413743638e-03
1.3376697392e+03 5.0810724261e-03
1.3413649595e+03 6.1697425442e-03
1.3450601797e+03 7.1606539733e-03
1.3487554000e+03 8.0076958758e-03
1.3524506203e+03 8.6655036699e-03
1.3561458406e+03 9.0870187954e-03
1.3598410608e+03 9.2276149544e-03
1.3635362811e+03 9.0744900883e-03
1.3672315014e+03 8.6771490420e-03
1.3709267217e+03 8.1355210181e-03
1.3746219419e+03 7.5525707345e-03
1.3783171622e+03 6.9952202688e-03
1.3820123825e+03 6.4999038263e-03
1.3857076027e+03 6.1091136356e-03
1.3894028230e+03 5.8789661873e-03
1.3930980433e+03 5.8467829344e-03
1.3967932636e+03 6.0123169954e-03
1.4004884838e+03 6.3497033552e-03
1.4041837041e+03 6.8163253473e-03
1.4078789244e+03 7.3447655632e-03
1.4115741447e+03 7.8440604613e-03
1.4152693649e+03 8.2242351566e-03
1.4189645852e+03 8.4169609019e-03
1.4226598055e+03 8.3737092581e-03
1.4263550258e+03 8.0636467497e-03
1.4300502460e+03 7.4823964405e-03
1.4337454663e+03 6.6653631544e-03
1.4374406866e+03 5.6950795179e-03
1.4411359069e+03 4.6732171677e-03
1.4448311271e+03 3.6643747712e-03
1.4485263474e+03 2.6691733970e-03
1.4522215677e+03 1.6535536183e-03
1.4559167880e+03 6.0285510062e-04
1.4596120082e+03 -4.4809050450e-04
1.4633072285e+03 -1.4336801872e-03
1.4670024488e+03 -2.3052116810e-03
1.4706976690e+03 -3.0691855983e-03
1.4743928893e+03 -3.7777164269e-03
1.4780881096e+03 -4.4702912325e-03
1.4817833299e+03 -5.1237513985e-03
1.4854785501e+03 -5.6539647809e-03
1.4891737704e+03 -5.9626555207e-03
1.4928689907e+03 -5.9930381469e-03
1.4965642110e+03 -5.7423705441e-03
1.5002594312e+03 -5.2311412140e-03
1.5039546515e+03 -4.4850820181e-03
1.5076498718e+03 -3.5397490446e-03
1.5113450921e+03 -2.4401088685e-03
1.5150403123e+03 -1.2405051987e-03
1.5187355326e+03 -1.6181056402e-05
1.5224307529e+03 1.1314962688e-03
1.5261259732e+03 2.0959142609e-03
1.5298211934e+03 2.7986471762e-03
1.5335164137e+03 3.2011658789e-03
1.5372116340e+03 3.2925515020e-03
1.5409068543e+03 3.0731872406e-03
1.5446020745e+03 2.5388135754e-03
1.5482972948e+03 1.6800311079e-03
1.5519925151e+03 5.0946129108e-04
1.5556877354e+03 -9.0709823125e-04
1.5593829556e+03 -2.4499348873e-03
1.5630781759e+03 -3.9847053562e-03
1.5667733962e+03 -5.4081154307e-03
1.5704686164e+03 -6.6668841633e-03
1.5741638367e+03 -7.7697444027e-03
1.5778590570e+03 -8.7994191633e-03
1.5815542773e+03 -9.8869673508e-03
1.5852494975e+03 -1.1151547775e-02
1.5889447178e+03 -1.2638507520e-02
1.5926399381e+03 -1.4272664006e-02
1.5963351584e+03 -1.5872346400e-02
1.6000303786e+03 -1.7244243824e-02
1.6037255989e+03 -1.8279659382e-02
1.6074208192e+03 -1.8981556778e-02
1.6111160395e+03 -1.9434130354e-02
1.6148112597e+03 -1.9747800968e-02
1.6185064800e+03 -2.0012320478e-02
1.6222017003e+03 -2.0286644239e-02
1.6258969206e+03 -2.0616992181e-02
1.6295921408e+03 -2.1046689528e-02
1.6332873611e+03 -2.1600938907e-02
1.6369825814e+03 -2.2277388129e-02
1.6406778017e+03 -2.3066113292e-02
1.6443730219e+03 -2.3966105102e-02
1.6480682422e+03 -2.4972593601e-02
1.6517634625e+03 -2.6054816764e-02
1.6554586827e+03 -2.7145909588e-02
1.6591539030e+03 -2.8151511137e-02
1.6628491233e+03 -2.8979871403e-02
1.6665443436e+03 -2.9586205017e-02
1.6702395638e+03 -2.9990829559e-02
1.6739347841e+03 -3.0239271660e-02
1.6776300044e+03 -3.0344281839e-02
1.6813252247e+03 -3.0274032121e-02
1.6850204449e+03 -2.9990570398e-02
1.6887156652e+03 -2.9501543497e-02
1.6924108855e+03 -2.8889007213e-02
1.6961061058e+03 -2.8281171245e-02
1.6998013260e+03 -2.7788731879e-02
1.7034965463e+03 -2.7480901749e-02
1.7071917666e+03 -2.7403265319e-02
1.7108869869e+03 -2.7581422236e-02
1.7145822071e+03 -2.8016139655e-02
1.7182774274e+03 -2.8694615340e-02
1.7219726477e+03 -2.9598644151e-02
1.7256678680e+03 -3.0711682254e-02
1.7293630882e+03 -3.2029336444e-02
1.7330583085e+03 -3.3535770971e-02
1.7367535288e+03 -3.5157931134e-02
1.7404487491e+03 -3.6768330849e-02
1.7441439693e+03 -3.8255086496e-02
1.7478391896e+03 -3.9591361590e-02
1.7515344099e+03 -4.0831144115e-02
1.7552296301e+03 -4.2060757621e-02
1.7589248504e+03 -4.3388106996e-02
1.7626200707e+03 -4.4957595375e-02
1.7663152910e+03 -4.6928548183e-02
1.7700105112e+03 -4.9431385580e-02
1.7737057315e+03 -5.2546911439e-02
1.7774009518e+03 -5.6303118274e-02
1.7810961721e+03 -6.0671613544e-02
1.7847913923e+03 -6.5583371435e-02
1.7884866126e+03 -7.0960781248e-02
1.7921818329e+03 -7.6725753581e-02
1.7958770532e+03 -8.2773436085e-02
1.7995722734e+03 -8.8944798018e-02
1.8032674937e+03 -9.5023510590e-02
1.8069627140e+03 -1.0076267237e-01
1.8106579343e+03 -1.0592480933e-01
1.8143531545e+03 -1.1028585111e-01
1.8180483748e+03 -1.1357698233e-01
1.8217435951e+03 -1.1540910942e-01
1.8254388154e+03 -1.1523399440e-01
1.8291340356e+03 -1.1233865964e-01
1.8328292559e+03 -1.0585364822e-01
1.8365244762e+03 -9.4776980148e-02
1.8402196964e+03 -7.7993771312e-02
1.8439149167e+03 -5.4270394203e-02
1.8476101370e+03 -2.2261851689e-02
1.8513053573e+03 1.9430547670e-02
1.8550005775e+03 7.2166792295e-02
1.8586957978e+03 1.3717912852e-01
1.8623910181e+03 2.1547035983e-01
1.8660862384e+03 3.0756411759e-01
1.8697814586e+03 4.1306928921e-01
1.8734766789e+03 5.3013606492e-01
1.8771718992e+03 6.5462397690e-01
1.8808671195e+03 7.7885333470e-01
1.8845623397e+03 8.9016395474e-01
1.8882575600e+03 9.7032374158e-01
