# Two-point auto-correlation R_33 (Cartesian) — case DNS_re250_mr06_11 (MR06), y^+ = 15
# Definition: R_{ij}(Δz; y) = < u_i''(x,y,z) u_j''(x,y,z+Δz) > / < u_i''(x,y,z)^2 >
# Columns: delta_z_plus    R
0.0000000000e+00 1.0000000000e+00
3.6952202740e+00 9.7748307684e-01
7.3904405480e+00 9.1569053496e-01
1.1085660822e+01 8.2758745437e-01
1.4780881096e+01 7.2626411809e-01
1.8476101370e+01 6.2157229614e-01
2.2171321644e+01 5.1994319654e-01
2.5866541918e+01 4.2520307274e-01
2.9561762192e+01 3.3941192728e-01
3.3256982466e+01 2.6345982511e-01
3.6952202740e+01 1.9745634908e-01
4.0647423014e+01 1.4102838552e-01
4.4342643288e+01 9.3525364341e-02
4.8037863562e+01 5.4148016533e-02
5.1733083836e+01 2.2023651564e-02
5.5428304110e+01 -3.7501919277e-03
5.9123524384e+01 -2.4072408581e-02
6.2818744658e+01 -3.9802778980e-02
6.6513964932e+01 -5.1720555200e-02
7.0209185206e+01 -6.0480604350e-02
7.3904405480e+01 -6.6605200681e-02
7.7599625754e+01 -7.0517309632e-02
8.1294846028e+01 -7.2572230232e-02
8.4990066302e+01 -7.3074058656e-02
8.8685286576e+01 -7.2295484478e-02
9.2380506850e+01 -7.0496289379e-02
9.6075727124e+01 -6.7931020870e-02
9.9770947398e+01 -6.4849087350e-02
1.0346616767e+02 -6.1486602392e-02
1.0716138795e+02 -5.8060211824e-02
1.1085660822e+02 -5.4761443854e-02
1.1455182849e+02 -5.1736352658e-02
1.1824704877e+02 -4.9069310628e-02
1.2194226904e+02 -4.6789031781e-02
1.2563748932e+02 -4.4877944109e-02
1.2933270959e+02 -4.3275361019e-02
1.3302792986e+02 -4.1892982134e-02
1.3672315014e+02 -4.0649074077e-02
1.4041837041e+02 -3.9492553703e-02
1.4411359069e+02 -3.8390302103e-02
1.4780881096e+02 -3.7300238326e-02
1.5150403123e+02 -3.6174680922e-02
1.5519925151e+02 -3.4987757531e-02
1.5889447178e+02 -3.3749454472e-02
1.6258969206e+02 -3.2489391583e-02
1.6628491233e+02 -3.1228560232e-02
1.6998013260e+02 -2.9966586651e-02
1.7367535288e+02 -2.8690513352e-02
1.7737057315e+02 -2.7398230098e-02
1.8106579343e+02 -2.6124835483e-02
1.8476101370e+02 -2.4951158545e-02
1.8845623397e+02 -2.3976558634e-02
1.9215145425e+02 -2.3266620511e-02
1.9584667452e+02 -2.2815070493e-02
1.9954189480e+02 -2.2548981937e-02
2.0323711507e+02 -2.2371298645e-02
2.0693233534e+02 -2.2214696391e-02
2.1062755562e+02 -2.2062861094e-02
2.1432277589e+02 -2.1924901449e-02
2.1801799617e+02 -2.1802365857e-02
2.2171321644e+02 -2.1677968952e-02
2.2540843671e+02 -2.1521537914e-02
2.2910365699e+02 -2.1310663134e-02
2.3279887726e+02 -2.1053795474e-02
2.3649409754e+02 -2.0794810415e-02
2.4018931781e+02 -2.0596218730e-02
2.4388453808e+02 -2.0516942639e-02
2.4757975836e+02 -2.0596632587e-02
2.5127497863e+02 -2.0844741686e-02
2.5497019891e+02 -2.1235299100e-02
2.5866541918e+02 -2.1710577987e-02
2.6236063945e+02 -2.2194609142e-02
2.6605585973e+02 -2.2607292105e-02
2.6975108000e+02 -2.2874814779e-02
2.7344630028e+02 -2.2942825706e-02
2.7714152055e+02 -2.2784930843e-02
2.8083674082e+02 -2.2399809544e-02
2.8453196110e+02 -2.1806686002e-02
2.8822718137e+02 -2.1044190819e-02
2.9192240165e+02 -2.0168821961e-02
2.9561762192e+02 -1.9253242448e-02
2.9931284219e+02 -1.8382447652e-02
3.0300806247e+02 -1.7631395172e-02
3.0670328274e+02 -1.7024017796e-02
3.1039850302e+02 -1.6512495788e-02
3.1409372329e+02 -1.6003899284e-02
3.1778894356e+02 -1.5407842392e-02
3.2148416384e+02 -1.4672954626e-02
3.2517938411e+02 -1.3805191094e-02
3.2887460439e+02 -1.2860093809e-02
3.3256982466e+02 -1.1916667891e-02
3.3626504493e+02 -1.1054614548e-02
3.3996026521e+02 -1.0334420060e-02
3.4365548548e+02 -9.7832319537e-03
3.4735070576e+02 -9.3995473311e-03
3.5104592603e+02 -9.1661409310e-03
3.5474114630e+02 -9.0615370012e-03
3.5843636658e+02 -9.0701674614e-03
3.6213158685e+02 -9.1816744948e-03
3.6582680713e+02 -9.3803567861e-03
3.6952202740e+02 -9.6335590713e-03
3.7321724767e+02 -9.8853306093e-03
3.7691246795e+02 -1.0065087430e-02
3.8060768822e+02 -1.0113284953e-02
3.8430290850e+02 -1.0003663329e-02
3.8799812877e+02 -9.7400595020e-03
3.9169334904e+02 -9.3385083953e-03
3.9538856932e+02 -8.8149849721e-03
3.9908378959e+02 -8.1771399032e-03
4.0277900987e+02 -7.4188198643e-03
4.0647423014e+02 -6.5331378182e-03
4.1016945041e+02 -5.5429217672e-03
4.1386467069e+02 -4.5161337424e-03
4.1755989096e+02 -3.5448265908e-03
4.2125511124e+02 -2.7043627969e-03
4.2495033151e+02 -2.0287569138e-03
4.2864555178e+02 -1.5186872927e-03
4.3234077206e+02 -1.1674638763e-03
4.3603599233e+02 -9.7584734987e-04
4.3973121261e+02 -9.3897548309e-04
4.4342643288e+02 -1.0235793476e-03
4.4712165315e+02 -1.1633781716e-03
4.5081687343e+02 -1.2803911615e-03
4.5451209370e+02 -1.3212627649e-03
4.5820731398e+02 -1.2872819552e-03
4.6190253425e+02 -1.2326347160e-03
4.6559775452e+02 -1.2288024152e-03
4.6929297480e+02 -1.3245041699e-03
4.7298819507e+02 -1.5348779826e-03
4.7668341534e+02 -1.8615648015e-03
4.8037863562e+02 -2.3051802981e-03
4.8407385589e+02 -2.8447725268e-03
4.8776907617e+02 -3.4169792372e-03
4.9146429644e+02 -3.9354022611e-03
4.9515951671e+02 -4.3259710909e-03
4.9885473699e+02 -4.5384312857e-03
5.0254995726e+02 -4.5393062664e-03
5.0624517754e+02 -4.3096453050e-03
5.0994039781e+02 -3.8510404351e-03
5.1363561808e+02 -3.1909727800e-03
5.1733083836e+02 -2.3864072904e-03
5.2102605863e+02 -1.5251102025e-03
5.2472127891e+02 -7.1991937044e-04
5.2841649918e+02 -9.0936088589e-05
5.3211171945e+02 2.6770320265e-04
5.3580693973e+02 3.2675507962e-04
5.3950216000e+02 1.3394249354e-04
5.4319738028e+02 -2.1311921358e-04
5.4689260055e+02 -6.0574097288e-04
5.5058782082e+02 -9.5220969266e-04
5.5428304110e+02 -1.1927220523e-03
5.5797826137e+02 -1.3075549505e-03
5.6167348165e+02 -1.3132713307e-03
5.6536870192e+02 -1.2443452864e-03
5.6906392219e+02 -1.1311236676e-03
5.7275914247e+02 -9.8998179658e-04
5.7645436274e+02 -8.3860106379e-04
5.8014958302e+02 -7.2100816191e-04
5.8384480329e+02 -7.0987005644e-04
5.8754002356e+02 -8.7624127456e-04
5.9123524384e+02 -1.2487665148e-03
5.9493046411e+02 -1.7988660944e-03
5.9862568439e+02 -2.4670203673e-03
6.0232090466e+02 -3.2007859014e-03
6.0601612493e+02 -3.9690899561e-03
6.0971134521e+02 -4.7479814493e-03
6.1340656548e+02 -5.4971359412e-03
6.1710178576e+02 -6.1555508580e-03
6.2079700603e+02 -6.6658025690e-03
6.2449222630e+02 -6.9981201478e-03
6.2818744658e+02 -7.1526986098e-03
6.3188266685e+02 -7.1539720828e-03
6.3557788713e+02 -7.0495105979e-03
6.3927310740e+02 -6.9008322965e-03
6.4296832767e+02 -6.7593276694e-03
6.4666354795e+02 -6.6470740788e-03
6.5035876822e+02 -6.5627169339e-03
6.5405398850e+02 -6.5013825975e-03
6.5774920877e+02 -6.4620438177e-03
6.6144442904e+02 -6.4378544459e-03
6.6513964932e+02 -6.4082466643e-03
6.6883486959e+02 -6.3505016174e-03
6.7253008987e+02 -6.2572210486e-03
6.7622531014e+02 -6.1364889691e-03
6.7992053041e+02 -5.9889549292e-03
6.8361575069e+02 -5.7862852630e-03
6.8731097096e+02 -5.4865766504e-03
6.9100619124e+02 -5.0723899707e-03
6.9470141151e+02 -4.5675857965e-03
6.9839663178e+02 -4.0234254420e-03
7.0209185206e+02 -3.4959408790e-03
7.0578707233e+02 -3.0328506495e-03
7.0948229261e+02 -2.6674288278e-03
7.1317751288e+02 -2.4147797463e-03
7.1687273315e+02 -2.2783917872e-03
7.2056795343e+02 -2.2678637128e-03
7.2426317370e+02 -2.4103593365e-03
7.2795839398e+02 -2.7357317217e-03
7.3165361425e+02 -3.2394226481e-03
7.3534883452e+02 -3.8581068802e-03
7.3904405480e+02 -4.4833217718e-03
7.4273927507e+02 -5.0020634728e-03
7.4643449535e+02 -5.3337473578e-03
7.5012971562e+02 -5.4445555787e-03
7.5382493589e+02 -5.3463273625e-03
7.5752015617e+02 -5.0840879661e-03
7.6121537644e+02 -4.7131302123e-03
7.6491059672e+02 -4.2846827115e-03
7.6860581699e+02 -3.8399595790e-03
7.7230103726e+02 -3.3992265286e-03
7.7599625754e+02 -2.9566665547e-03
7.7969147781e+02 -2.4899277112e-03
7.8338669809e+02 -1.9706031401e-03
7.8708191836e+02 -1.3633241161e-03
7.9077713863e+02 -6.2701351820e-04
7.9447235891e+02 2.6032411451e-04
7.9816757918e+02 1.2721762819e-03
8.0186279946e+02 2.3381947402e-03
8.0555801973e+02 3.3688171594e-03
8.0925324000e+02 4.2720461941e-03
8.1294846028e+02 4.9697329994e-03
8.1664368055e+02 5.4157240075e-03
8.2033890083e+02 5.6025456131e-03
8.2403412110e+02 5.5592300492e-03
8.2772934137e+02 5.3493464129e-03
8.3142456165e+02 5.0634949864e-03
8.3511978192e+02 4.8047517444e-03
8.3881500220e+02 4.6717952028e-03
8.4251022247e+02 4.7386960133e-03
8.4620544274e+02 5.0394435565e-03
8.4990066302e+02 5.5658889534e-03
8.5359588329e+02 6.2689032025e-03
8.5729110357e+02 7.0589776352e-03
8.6098632384e+02 7.8125668781e-03
8.6468154411e+02 8.3897631578e-03
8.6837676439e+02 8.6707667215e-03
8.7207198466e+02 8.6052940209e-03
8.7576720494e+02 8.2388451945e-03
8.7946242521e+02 7.6894096999e-03
8.8315764548e+02 7.0942204318e-03
8.8685286576e+02 6.5612114952e-03
8.9054808603e+02 6.1433092699e-03
8.9424330631e+02 5.8321169993e-03
8.9793852658e+02 5.5651511604e-03
9.0163374685e+02 5.2484507707e-03
9.0532896713e+02 4.7940681258e-03
9.0902418740e+02 4.1563937521e-03
9.1271940768e+02 3.3410575080e-03
9.1641462795e+02 2.3887090651e-03
9.2010984822e+02 1.3531643686e-03
9.2380506850e+02 2.8645917072e-04
9.2750028877e+02 -7.6061056299e-04
9.3119550905e+02 -1.7303366086e-03
9.3489072932e+02 -2.5618910498e-03
9.3858594959e+02 -3.2018652429e-03
9.4228116987e+02 -3.6073912956e-03
9.4597639014e+02 -3.7467648849e-03
9.4967161042e+02 -3.6073912956e-03
9.5336683069e+02 -3.2018652429e-03
9.5706205096e+02 -2.5618910498e-03
9.6075727124e+02 -1.7303366086e-03
9.6445249151e+02 -7.6061056299e-04
9.6814771179e+02 2.8645917072e-04
9.7184293206e+02 1.3531643686e-03
9.7553815233e+02 2.3887090651e-03
9.7923337261e+02 3.3410575080e-03
9.8292859288e+02 4.1563937521e-03
9.8662381316e+02 4.7940681258e-03
9.9031903343e+02 5.2484507707e-03
9.9401425370e+02 5.5651511604e-03
9.9770947398e+02 5.8321169993e-03
1.0014046943e+03 6.1433092699e-03
1.0050999145e+03 6.5612114952e-03
1.0087951348e+03 7.0942204318e-03
1.0124903551e+03 7.6894096999e-03
1.0161855753e+03 8.2388451945e-03
1.0198807956e+03 8.6052940209e-03
1.0235760159e+03 8.6707667215e-03
1.0272712362e+03 8.3897631578e-03
1.0309664564e+03 7.8125668781e-03
1.0346616767e+03 7.0589776352e-03
1.0383568970e+03 6.2689032025e-03
1.0420521173e+03 5.5658889534e-03
1.0457473375e+03 5.0394435565e-03
1.0494425578e+03 4.7386960133e-03
1.0531377781e+03 4.6717952028e-03
1.0568329984e+03 4.8047517444e-03
1.0605282186e+03 5.0634949864e-03
1.0642234389e+03 5.3493464129e-03
1.0679186592e+03 5.5592300492e-03
1.0716138795e+03 5.6025456131e-03
1.0753090997e+03 5.4157240075e-03
1.0790043200e+03 4.9697329994e-03
1.0826995403e+03 4.2720461941e-03
1.0863947606e+03 3.3688171594e-03
1.0900899808e+03 2.3381947402e-03
1.0937852011e+03 1.2721762819e-03
1.0974804214e+03 2.6032411451e-04
1.1011756416e+03 -6.2701351820e-04
1.1048708619e+03 -1.3633241161e-03
1.1085660822e+03 -1.9706031401e-03
1.1122613025e+03 -2.4899277112e-03
1.1159565227e+03 -2.9566665547e-03
1.1196517430e+03 -3.3992265286e-03
1.1233469633e+03 -3.8399595790e-03
1.1270421836e+03 -4.2846827115e-03
1.1307374038e+03 -4.7131302123e-03
1.1344326241e+03 -5.0840879661e-03
1.1381278444e+03 -5.3463273625e-03
1.1418230647e+03 -5.4445555787e-03
1.1455182849e+03 -5.3337473578e-03
1.1492135052e+03 -5.0020634728e-03
1.1529087255e+03 -4.4833217718e-03
1.1566039458e+03 -3.8581068802e-03
1.1602991660e+03 -3.2394226481e-03
1.1639943863e+03 -2.7357317217e-03
1.1676896066e+03 -2.4103593365e-03
1.1713848269e+03 -2.2678637128e-03
1.1750800471e+03 -2.2783917872e-03
1.1787752674e+03 -2.4147797463e-03
1.1824704877e+03 -2.6674288278e-03
1.1861657080e+03 -3.0328506495e-03
1.1898609282e+03 -3.4959408790e-03
1.1935561485e+03 -4.0234254420e-03
1.1972513688e+03 -4.5675857965e-03
1.2009465890e+03 -5.0723899707e-03
1.2046418093e+03 -5.4865766504e-03
1.2083370296e+03 -5.7862852630e-03
1.2120322499e+03 -5.9889549292e-03
1.2157274701e+03 -6.1364889691e-03
1.2194226904e+03 -6.2572210486e-03
1.2231179107e+03 -6.3505016174e-03
1.2268131310e+03 -6.4082466643e-03
1.2305083512e+03 -6.4378544459e-03
1.2342035715e+03 -6.4620438177e-03
1.2378987918e+03 -6.5013825975e-03
1.2415940121e+03 -6.5627169339e-03
1.2452892323e+03 -6.6470740788e-03
1.2489844526e+03 -6.7593276694e-03
1.2526796729e+03 -6.9008322965e-03
1.2563748932e+03 -7.0495105979e-03
1.2600701134e+03 -7.1539720828e-03
1.2637653337e+03 -7.1526986098e-03
1.2674605540e+03 -6.9981201478e-03
1.2711557743e+03 -6.6658025690e-03
1.2748509945e+03 -6.1555508580e-03
1.2785462148e+03 -5.4971359412e-03
1.2822414351e+03 -4.7479814493e-03
1.2859366553e+03 -3.9690899561e-03
1.2896318756e+03 -3.2007859014e-03
1.2933270959e+03 -2.4670203673e-03
1.2970223162e+03 -1.7988660944e-03
1.3007175364e+03 -1.2487665148e-03
1.3044127567e+03 -8.7624127456e-04
1.3081079770e+03 -7.0987005644e-04
1.3118031973e+03 -7.2100816191e-04
1.3154984175e+03 -8.3860106379e-04
1.3191936378e+03 -9.8998179658e-04
1.3228888581e+03 -1.1311236676e-03
1.3265840784e+03 -1.2443452864e-03
1.3302792986e+03 -1.3132713307e-03
1.3339745189e+03 -1.3075549505e-03
1.3376697392e+03 -1.1927220523e-03
1.3413649595e+03 -9.5220969266e-04
1.3450601797e+03 -6.0574097288e-04
1.3487554000e+03 -2.1311921358e-04
1.3524506203e+03 1.3394249354e-04
1.3561458406e+03 3.2675507962e-04
1.3598410608e+03 2.6770320265e-04
1.3635362811e+03 -9.0936088589e-05
1.3672315014e+03 -7.1991937044e-04
1.3709267217e+03 -1.5251102025e-03
1.3746219419e+03 -2.3864072904e-03
1.3783171622e+03 -3.1909727800e-03
1.3820123825e+03 -3.8510404351e-03
1.3857076027e+03 -4.3096453050e-03
1.3894028230e+03 -4.5393062664e-03
1.3930980433e+03 -4.5384312857e-03
1.3967932636e+03 -4.3259710909e-03
1.4004884838e+03 -3.9354022611e-03
1.4041837041e+03 -3.4169792372e-03
1.4078789244e+03 -2.8447725268e-03
1.4115741447e+03 -2.3051802981e-03
1.4152693649e+03 -1.8615648015e-03
1.4189645852e+03 -1.5348779826e-03
1.4226598055e+03 -1.3245041699e-03
1.4263550258e+03 -1.2288024152e-03
1.4300502460e+03 -1.2326347160e-03
1.4337454663e+03 -1.2872819552e-03
1.4374406866e+03 -1.3212627649e-03
1.4411359069e+03 -1.2803911615e-03
1.4448311271e+03 -1.1633781716e-03
1.4485263474e+03 -1.0235793476e-03
1.4522215677e+03 -9.3897548309e-04
1.4559167880e+03 -9.7584734987e-04
1.4596120082e+03 -1.1674638763e-03
1.4633072285e+03 -1.5186872927e-03
1.4670024488e+03 -2.0287569138e-03
1.4706976690e+03 -2.7043627969e-03
1.4743928893e+03 -3.5448265908e-03
1.4780881096e+03 -4.5161337424e-03
1.4817833299e+03 -5.5429217672e-03
1.4854785501e+03 -6.5331378182e-03
1.4891737704e+03 -7.4188198643e-03
1.4928689907e+03 -8.1771399032e-03
1.4965642110e+03 -8.8149849721e-03
1.5002594312e+03 -9.3385083953e-03
1.5039546515e+03 -9.7400595020e-03
1.5076498718e+03 -1.0003663329e-02
1.5113450921e+03 -1.0113284953e-02
1.5150403123e+03 -1.0065087430e-02
1.5187355326e+03 -9.8853306093e-03
1.5224307529e+03 -9.6335590713e-03
1.5261259732e+03 -9.3803567861e-03
1.5298211934e+03 -9.1816744948e-03
1.5335164137e+03 -9.0701674614e-03
1.5372116340e+03 -9.0615370012e-03
1.5409068543e+03 -9.1661409310e-03
1.5446020745e+03 -9.3995473311e-03
1.5482972948e+03 -9.7832319537e-03
1.5519925151e+03 -1.0334420060e-02
1.5556877354e+03 -1.1054614548e-02
1.5593829556e+03 -1.1916667891e-02
1.5630781759e+03 -1.2860093809e-02
1.5667733962e+03 -1.3805191094e-02
1.5704686164e+03 -1.4672954626e-02
1.5741638367e+03 -1.5407842392e-02
1.5778590570e+03 -1.6003899284e-02
1.5815542773e+03 -1.6512495788e-02
1.5852494975e+03 -1.7024017796e-02
1.5889447178e+03 -1.7631395172e-02
1.5926399381e+03 -1.8382447652e-02
1.5963351584e+03 -1.9253242448e-02
1.6000303786e+03 -2.0168821961e-02
1.6037255989e+03 -2.1044190819e-02
1.6074208192e+03 -2.1806686002e-02
1.6111160395e+03 -2.2399809544e-02
1.6148112597e+03 -2.2784930843e-02
1.6185064800e+03 -2.2942825706e-02
1.6222017003e+03 -2.2874814779e-02
1.6258969206e+03 -2.2607292105e-02
1.6295921408e+03 -2.2194609142e-02
1.6332873611e+03 -2.1710577987e-02
1.6369825814e+03 -2.1235299100e-02
1.6406778017e+03 -2.0844741686e-02
1.6443730219e+03 -2.0596632587e-02
1.6480682422e+03 -2.0516942639e-02
1.6517634625e+03 -2.0596218730e-02
1.6554586827e+03 -2.0794810415e-02
1.6591539030e+03 -2.1053795474e-02
1.6628491233e+03 -2.1310663134e-02
1.6665443436e+03 -2.1521537914e-02
1.6702395638e+03 -2.1677968952e-02
1.6739347841e+03 -2.1802365857e-02
1.6776300044e+03 -2.1924901449e-02
1.6813252247e+03 -2.2062861094e-02
1.6850204449e+03 -2.2214696391e-02
1.6887156652e+03 -2.2371298645e-02
1.6924108855e+03 -2.2548981937e-02
1.6961061058e+03 -2.2815070493e-02
1.6998013260e+03 -2.3266620511e-02
1.7034965463e+03 -2.3976558634e-02
1.7071917666e+03 -2.4951158545e-02
1.7108869869e+03 -2.6124835483e-02
1.7145822071e+03 -2.7398230098e-02
1.7182774274e+03 -2.8690513352e-02
1.7219726477e+03 -2.9966586651e-02
1.7256678680e+03 -3.1228560232e-02
1.7293630882e+03 -3.2489391583e-02
1.7330583085e+03 -3.3749454472e-02
1.7367535288e+03 -3.4987757531e-02
1.7404487491e+03 -3.6174680922e-02
1.7441439693e+03 -3.7300238326e-02
1.7478391896e+03 -3.8390302103e-02
1.7515344099e+03 -3.9492553703e-02
1.7552296301e+03 -4.0649074077e-02
1.7589248504e+03 -4.1892982134e-02
1.7626200707e+03 -4.3275361019e-02
1.7663152910e+03 -4.4877944109e-02
1.7700105112e+03 -4.6789031781e-02
1.7737057315e+03 -4.9069310628e-02
1.7774009518e+03 -5.1736352658e-02
1.7810961721e+03 -5.4761443854e-02
1.7847913923e+03 -5.8060211824e-02
1.7884866126e+03 -6.1486602392e-02
1.7921818329e+03 -6.4849087350e-02
1.7958770532e+03 -6.7931020870e-02
1.7995722734e+03 -7.0496289379e-02
1.8032674937e+03 -7.2295484478e-02
1.8069627140e+03 -7.3074058656e-02
1.8106579343e+03 -7.2572230232e-02
1.8143531545e+03 -7.0517309632e-02
1.8180483748e+03 -6.6605200681e-02
1.8217435951e+03 -6.0480604350e-02
1.8254388154e+03 -5.1720555200e-02
1.8291340356e+03 -3.9802778980e-02
1.8328292559e+03 -2.4072408581e-02
1.8365244762e+03 -3.7501919277e-03
1.8402196964e+03 2.2023651564e-02
1.8439149167e+03 5.4148016533e-02
1.8476101370e+03 9.3525364341e-02
1.8513053573e+03 1.4102838552e-01
1.8550005775e+03 1.9745634908e-01
1.8586957978e+03 2.6345982511e-01
1.8623910181e+03 3.3941192728e-01
1.8660862384e+03 4.2520307274e-01
1.8697814586e+03 5.1994319654e-01
1.8734766789e+03 6.2157229614e-01
1.8771718992e+03 7.2626411809e-01
1.8808671195e+03 8.2758745437e-01
1.8845623397e+03 9.1569053496e-01
1.8882575600e+03 9.7748307684e-01
