# Rotated Reynolds stress Morkovin's scaling
# Columns: y_plus    rho v''w''rotated/tau_wall
3.8646263475e-01 2.5293309101e-07
1.1533752036e+00 6.7580364207e-06
1.9209634831e+00 3.0361604517e-05
2.6894093988e+00 7.8157466024e-05
3.4589138713e+00 1.4851099561e-04
4.2296938542e+00 2.3160981753e-04
5.0019793562e+00 3.1696665810e-04
5.7760106829e+00 4.0054789469e-04
6.5520360469e+00 4.8674642190e-04
7.3303096133e+00 5.8113516901e-04
8.1110899864e+00 6.8820503144e-04
8.8946390963e+00 8.1033362237e-04
9.6812214258e+00 9.5106628276e-04
1.0471103504e+01 1.1102987895e-03
1.1264553601e+01 1.2845206963e-03
1.2061841567e+01 1.4639620555e-03
1.2863238767e+01 1.6373994447e-03
1.3669018081e+01 1.7908055804e-03
1.4479453944e+01 1.9104260398e-03
1.5294822408e+01 1.9797827545e-03
1.6115401223e+01 1.9836061300e-03
1.6941469919e+01 1.9078371922e-03
1.7773309905e+01 1.7458051530e-03
1.8611204551e+01 1.5001215276e-03
1.9455439297e+01 1.1864612617e-03
2.0306301738e+01 8.2824842132e-04
2.1164081729e+01 4.5043690983e-04
2.2029071483e+01 7.0261517961e-05
2.2901565666e+01 -3.0519646127e-04
2.3781861504e+01 -6.7816537881e-04
2.4670258877e+01 -1.0568431786e-03
2.5567060427e+01 -1.4522754669e-03
2.6472571660e+01 -1.8726972816e-03
2.7387101046e+01 -2.3189478540e-03
2.8310960130e+01 -2.7842904948e-03
2.9244463634e+01 -3.2563235027e-03
3.0187929564e+01 -3.7194417351e-03
3.1141679324e+01 -4.1572856654e-03
3.2106037817e+01 -4.5560179436e-03
3.3081333562e+01 -4.9040488980e-03
3.4067898803e+01 -5.1939299314e-03
3.5066069625e+01 -5.4239178342e-03
3.6076186064e+01 -5.5965262360e-03
3.7098592226e+01 -5.7114855546e-03
3.8133636406e+01 -5.7615125037e-03
3.9181671201e+01 -5.7295238783e-03
4.0243053635e+01 -5.5918169042e-03
4.1318145279e+01 -5.3245990818e-03
4.2407312375e+01 -4.9166686454e-03
4.3510925957e+01 -4.3760045742e-03
4.4629361984e+01 -3.7259597242e-03
4.5763001462e+01 -2.9932376615e-03
4.6912230577e+01 -2.2020878180e-03
4.8077440826e+01 -1.3757132182e-03
4.9259029150e+01 -5.4054169550e-04
5.0457398069e+01 2.7197287093e-04
5.1672955819e+01 1.0308537109e-03
5.2906116493e+01 1.7149873322e-03
5.4157300179e+01 2.3145131612e-03
5.5426933107e+01 2.8196415916e-03
5.6715447790e+01 3.2099150591e-03
5.8023283173e+01 3.4517069279e-03
5.9350884784e+01 3.5057559908e-03
6.0698704885e+01 3.3463125213e-03
6.2067202624e+01 2.9831085223e-03
6.3456844193e+01 2.4657858276e-03
6.4868102990e+01 1.8673827370e-03
6.6301459772e+01 1.2515901983e-03
6.7757402829e+01 6.4659756803e-04
6.9236428142e+01 4.6490631120e-05
7.0739039556e+01 -5.5796406287e-04
7.2265748952e+01 -1.1494062451e-03
7.3817076418e+01 -1.6751271183e-03
7.5393550430e+01 -2.0736455578e-03
7.6995708031e+01 -2.3070645705e-03
7.8624095011e+01 -2.3674632508e-03
8.0279266098e+01 -2.2695755213e-03
8.1961785143e+01 -2.0435400968e-03
8.3672225313e+01 -1.7327546811e-03
8.5411169286e+01 -1.4204788444e-03
8.7179209453e+01 -1.2078253106e-03
8.8976948115e+01 -1.1326345126e-03
9.0804997688e+01 -1.1399007792e-03
9.2663980918e+01 -1.1260693660e-03
9.4554531086e+01 -9.9897119633e-04
9.6477292228e+01 -7.0328772800e-04
9.8432919351e+01 -2.1038689798e-04
1.0042207866e+02 4.7012024375e-04
1.0244544778e+02 1.2701115846e-03
1.0450371600e+02 2.0889259819e-03
1.0659758449e+02 2.8328034976e-03
1.0872776654e+02 3.4338382062e-03
1.1089498782e+02 3.8489397361e-03
1.1309998661e+02 4.0878959728e-03
1.1534351409e+02 4.2006040438e-03
1.1762633451e+02 4.2270682032e-03
1.1994922556e+02 4.1997416274e-03
1.2231297854e+02 4.1419598764e-03
1.2471839870e+02 4.0667686524e-03
1.2716630546e+02 3.9548757790e-03
1.2965753273e+02 3.7701946087e-03
1.3219292918e+02 3.4893390163e-03
1.3477335850e+02 3.1545640105e-03
1.3739969976e+02 2.8402578643e-03
1.4007284764e+02 2.5515952812e-03
1.4279371277e+02 2.2693205813e-03
1.4556322205e+02 2.0361725106e-03
1.4838231894e+02 1.9639402573e-03
1.5125196379e+02 2.0930665447e-03
1.5417313418e+02 2.3752345647e-03
1.5714682523e+02 2.7166416003e-03
1.6017404996e+02 3.0092239596e-03
1.6325583964e+02 3.1647399728e-03
1.6639324409e+02 3.2523769612e-03
1.6958733211e+02 3.2376138851e-03
1.7283919180e+02 3.0904817025e-03
1.7614993094e+02 2.9145233892e-03
1.7952067737e+02 2.5186447751e-03
1.8295257936e+02 1.6231299995e-03
1.8644680602e+02 3.0216904581e-04
1.9000454771e+02 -1.1525234009e-03
1.9362701641e+02 -2.5232473955e-03
1.9731544613e+02 -3.6906851414e-03
2.0107109340e+02 -4.5888974484e-03
2.0489523759e+02 -5.1617042865e-03
2.0878918146e+02 -5.3244304249e-03
2.1275425151e+02 -5.1283968995e-03
2.1679179849e+02 -4.7013917924e-03
2.2090319782e+02 -4.2024757582e-03
2.2508985010e+02 -3.6964381708e-03
2.2935318154e+02 -3.1012441033e-03
2.3369464451e+02 -2.5578246605e-03
2.3811571797e+02 -2.2464773008e-03
2.4261790799e+02 -2.0652969780e-03
2.4720274829e+02 -1.7203905684e-03
2.5187180076e+02 -1.2420863836e-03
2.5662665594e+02 -7.7070981750e-04
2.6146893364e+02 -3.0924890594e-04
2.6640028341e+02 1.5923519699e-04
2.7142238519e+02 3.2323558991e-04
2.7653694978e+02 1.7061054904e-04
2.8174571954e+02 6.2011138847e-05
2.8705046887e+02 3.3506447626e-05
2.9245300490e+02 2.1152831081e-04
2.9795516805e+02 5.9611196833e-04
3.0355883269e+02 1.4463847580e-03
3.0926590777e+02 2.3353957626e-03
3.1507833746e+02 2.7972275330e-03
3.2099810182e+02 2.6348677321e-03
3.2702721749e+02 2.0259463674e-03
3.3316773833e+02 1.5690739568e-03
3.3942175615e+02 1.5166783377e-03
3.4579140141e+02 1.5863373426e-03
3.5227884389e+02 1.5173110215e-03
3.5888629334e+02 1.1743623175e-03
3.6561600013e+02 5.1524915471e-04
3.7247025564e+02 -2.8044235766e-04
3.7945139238e+02 -6.8805117077e-04
3.8656178361e+02 -5.6776505877e-04
3.9380384183e+02 -2.7007176497e-04
4.0118001554e+02 -4.9292704283e-06
4.0869278313e+02 3.2546194446e-04
4.1634464207e+02 8.2056832010e-04
4.2413809122e+02 1.1858971226e-03
4.3207560294e+02 1.1233622186e-03
4.4015958123e+02 1.0688332235e-03
4.4839230158e+02 1.0219880964e-03
4.5677582794e+02 8.8883782781e-04
4.6531190345e+02 9.3889618240e-04
4.7400181292e+02 1.0241706061e-03
4.8284621863e+02 8.3039165986e-04
4.9184497480e+02 6.1929383953e-04
5.0099693186e+02 5.3643036323e-04
5.1029974625e+02 4.3518656248e-04
5.1974971627e+02 4.1757311241e-04
5.2934166651e+02 5.1736162905e-04
5.3906890265e+02 5.6706837461e-04
5.4892325388e+02 4.2537763810e-04
5.5889521190e+02 2.0865563231e-04
5.6897416497e+02 3.2966992640e-05
5.7914871332e+02 -5.5798901849e-05
5.8940704153e+02 -1.0236163868e-04
5.9973731589e+02 -1.1803556303e-04
6.1012807113e+02 -1.0532267824e-04
6.2056855339e+02 -1.0380312745e-04
6.3104899243e+02 -9.3210560741e-05
6.4156078668e+02 -6.0532614175e-05
6.5209659581e+02 -2.6859936320e-05
6.6265034658e+02 -1.4517725889e-06
6.7321716636e+02 1.4958350637e-05
6.8379326367e+02 2.4137551056e-05
6.9437577694e+02 2.7099124182e-05
7.0496261119e+02 2.2939167194e-05
7.1555227852e+02 1.9121092477e-05
7.2614375372e+02 1.7516279462e-05
7.3673635149e+02 1.5961669138e-05
7.4732962734e+02 1.5739799935e-05
7.5792330156e+02 1.5534882412e-05
7.6851720338e+02 1.4628616088e-05
7.7911123163e+02 1.3551515882e-05
7.8970532814e+02 1.2502880304e-05
8.0029946048e+02 1.1501696430e-05
8.1089361110e+02 1.0568435652e-05
8.2148777078e+02 9.7120089101e-06
8.3208193482e+02 8.9330842660e-06
8.4267610090e+02 8.2268277904e-06
8.5327026791e+02 7.5831737967e-06
8.6386443532e+02 6.9931653349e-06
8.7445860292e+02 6.4429538937e-06
8.8505277058e+02 5.9265859496e-06
8.9564693828e+02 5.4353960569e-06
9.0624110599e+02 4.9683269060e-06
9.1683527370e+02 4.5253774738e-06
9.2742944141e+02 4.1124240474e-06
9.3802360913e+02 3.7392887337e-06
9.4861777684e+02 3.4139270651e-06
9.5921194456e+02 3.1452230665e-06
9.6980611227e+02 2.9307062393e-06
9.8040027999e+02 2.7703915846e-06
9.9099444770e+02 2.6482058951e-06
1.0015886154e+03 2.5574438766e-06
1.0121827831e+03 2.4744796667e-06
1.0227769508e+03 2.3928015092e-06
1.0333711186e+03 2.2942880272e-06
1.0439652863e+03 2.1837781577e-06
1.0545594540e+03 2.0547630217e-06
1.0651536217e+03 1.9204952786e-06
1.0757477894e+03 1.7773099351e-06
1.0863419571e+03 1.6404500927e-06
1.0969361249e+03 1.5060104398e-06
1.1075302926e+03 1.3881925838e-06
1.1181244603e+03 1.2776426036e-06
1.1287186280e+03 1.1830725360e-06
1.1393127957e+03 1.0914746362e-06
1.1499069634e+03 1.0128881202e-06
1.1605011311e+03 9.3871216689e-07
1.1710952989e+03 8.8131594158e-07
1.1816894666e+03 8.3025680492e-07
1.1922836343e+03 7.8827486099e-07
1.2028778020e+03 7.3720517652e-07
1.2134719697e+03 6.7586389116e-07
1.2240661374e+03 5.9206488449e-07
1.2346603051e+03 4.9362731593e-07
1.2452544729e+03 3.7977539357e-07
1.2558486406e+03 2.6542547222e-07
1.2664428083e+03 1.6014558284e-07
1.2770369760e+03 8.2769495729e-08
1.2876311437e+03 4.4048449718e-08
1.2982253114e+03 4.2408597255e-08
1.3088194791e+03 6.9433516746e-08
1.3194136469e+03 1.0107422498e-07
1.3300078146e+03 1.3265127235e-07
1.3406019823e+03 1.4610082537e-07
1.3511961500e+03 1.5709640367e-07
1.3617903177e+03 1.6056560581e-07
1.3723844854e+03 1.8619779735e-07
1.3829786531e+03 2.3038445400e-07
1.3935728209e+03 3.1366309979e-07
1.4041669886e+03 4.1723091280e-07
1.4147611563e+03 5.4938812828e-07
1.4253553240e+03 6.8977663814e-07
1.4359494917e+03 8.5259017671e-07
1.4465436594e+03 1.0225399145e-06
1.4571378272e+03 1.2124273918e-06
1.4677319949e+03 1.3974718070e-06
1.4783261626e+03 1.5833811700e-06
1.4889203303e+03 1.7411828631e-06
1.4995144980e+03 1.8806314288e-06
1.5101086657e+03 1.9758411665e-06
1.5207028334e+03 2.0430282996e-06
1.5312970012e+03 2.0606100912e-06
1.5418911689e+03 2.0541815021e-06
1.5524853366e+03 2.0129295192e-06
1.5630795043e+03 1.9731733412e-06
1.5736736720e+03 1.9248750339e-06
1.5842678397e+03 1.8936745983e-06
1.5948620074e+03 1.8511598504e-06
1.6054561752e+03 1.8090113987e-06
1.6160503429e+03 1.7345653915e-06
1.6266445106e+03 1.6485193684e-06
1.6372386783e+03 1.5317919077e-06
1.6478328460e+03 1.4196787630e-06
1.6584270137e+03 1.2960334823e-06
1.6690211814e+03 1.1945177368e-06
1.6796153492e+03 1.0883676881e-06
1.6902095169e+03 1.0052178720e-06
1.7008036846e+03 9.1051782020e-07
1.7113978523e+03 8.3044355116e-07
1.7219920200e+03 7.3449260301e-07
1.7325861877e+03 6.5367165642e-07
1.7431803555e+03 5.6505235442e-07
1.7537745232e+03 4.9524679545e-07
1.7643686909e+03 4.2632569589e-07
1.7749628586e+03 3.7917053718e-07
1.7855570263e+03 3.4637701832e-07
1.7961511940e+03 3.3804312968e-07
1.8067453617e+03 3.5225789755e-07
1.8173395295e+03 3.8014370110e-07
1.8279336972e+03 4.2492700930e-07
1.8385278649e+03 4.6080081332e-07
1.8491220326e+03 4.9967344353e-07
1.8597162003e+03 5.0477580441e-07
1.8703103680e+03 4.9794875519e-07
1.8809045357e+03 4.3810902042e-07
1.8914987035e+03 3.6087499456e-07
1.9020928712e+03 2.3241323292e-07
1.9126870389e+03 1.0257512342e-07
1.9232812066e+03 -5.6442028290e-08
1.9338753743e+03 -1.9345806211e-07
1.9444695420e+03 -3.3699234791e-07
1.9550637097e+03 -4.4202431761e-07
1.9656578775e+03 -5.4169674640e-07
1.9762520452e+03 -6.0145370518e-07
1.9868462129e+03 -6.5958655544e-07
1.9974403806e+03 -6.8834435464e-07
2.0080345483e+03 -7.2429538661e-07
2.0186287160e+03 -7.4433817165e-07
2.0292228837e+03 -7.8065835143e-07
2.0398170515e+03 -8.1171928455e-07
2.0504112192e+03 -8.5424849439e-07
2.0610053869e+03 -8.7808550887e-07
2.0715995546e+03 -8.8384528027e-07
2.0821937223e+03 -8.4677455904e-07
2.0927878900e+03 -7.7461908716e-07
2.1033820578e+03 -6.6333943979e-07
2.1139762255e+03 -5.2700289243e-07
2.1245703932e+03 -3.6657777152e-07
2.1351645609e+03 -1.9038267080e-07
2.1457587286e+03 -2.7624519106e-09
2.1563528963e+03 1.8536120913e-07
2.1669470640e+03 3.6397761152e-07
2.1775412318e+03 5.2817383918e-07
2.1881353995e+03 6.7480893364e-07
2.1987295672e+03 8.1189138370e-07
2.2093237349e+03 9.3869843518e-07
2.2199179026e+03 1.0651270417e-06
2.2305120703e+03 1.1867558121e-06
2.2411062380e+03 1.3104185206e-06
2.2517004058e+03 1.4300503704e-06
2.2622945735e+03 1.5457597761e-06
2.2728887412e+03 1.6490572243e-06
2.2834829089e+03 1.7342791104e-06
2.2940770766e+03 1.7963654325e-06
2.3046712443e+03 1.8344242960e-06
2.3152654120e+03 1.8499711684e-06
2.3258595798e+03 1.8477615357e-06
2.3364537475e+03 1.8237830274e-06
2.3470479152e+03 1.7851596808e-06
2.3576420829e+03 1.7219077257e-06
2.3682362506e+03 1.6578666122e-06
2.3788304183e+03 1.5820590820e-06
2.3894245861e+03 1.5325759206e-06
2.4000187538e+03 1.4769392334e-06
2.4106129215e+03 1.4514869401e-06
2.4212070892e+03 1.3926318295e-06
2.4318012569e+03 1.3423704687e-06
2.4423954246e+03 1.2203162126e-06
2.4529895923e+03 1.0911858846e-06
2.4635837601e+03 8.7771751918e-07
2.4741779278e+03 6.8138055691e-07
2.4847720955e+03 4.3780962504e-07
2.4953662632e+03 2.7073924187e-07
2.5059604309e+03 1.0256940338e-07
2.5165545986e+03 4.3446126593e-08
2.5271487663e+03 -1.7021680250e-08
2.5377429341e+03 1.5815705107e-08
2.5483371018e+03 1.3943846736e-08
2.5589312695e+03 7.7670050814e-08
2.5695254372e+03 7.9881199668e-08
2.5801196049e+03 1.3560757516e-07
2.5907137726e+03 1.1481909011e-07
2.6013079403e+03 1.3353801797e-07
2.6119021081e+03 4.6775862947e-08
2.6224962758e+03 -3.2439021370e-08
2.6330904435e+03 -2.4570562096e-07
2.6436846112e+03 -4.6208858144e-07
2.6542787789e+03 -7.9583522637e-07
2.6648729466e+03 -1.1012739529e-06
2.6754671143e+03 -1.4734385624e-06
2.6860612821e+03 -1.7776390244e-06
2.6966554498e+03 -2.0921711975e-06
2.7072496175e+03 -2.3124632433e-06
2.7178437852e+03 -2.4938096223e-06
2.7284379529e+03 -2.5833477992e-06
