# Rotated Reynolds stress Morkovin's scaling
# Columns: y_plus    rho w''w''rotated/tau_wall
3.8646263475e-01 1.0609957489e-02
1.1533752036e+00 7.7463576697e-02
1.9209634831e+00 1.7944572320e-01
2.6894093988e+00 2.9632916581e-01
3.4589138713e+00 4.1662150628e-01
4.2296938542e+00 5.3393817623e-01
5.0019793562e+00 6.4552937225e-01
5.7760106829e+00 7.5027876010e-01
6.5520360469e+00 8.4831638532e-01
7.3303096133e+00 9.3991606615e-01
8.1110899864e+00 1.0257068275e+00
8.8946390963e+00 1.1060943997e+00
9.6812214258e+00 1.1816168366e+00
1.0471103504e+01 1.2525610538e+00
1.1264553601e+01 1.3192831294e+00
1.2061841567e+01 1.3819351324e+00
1.2863238767e+01 1.4407106275e+00
1.3669018081e+01 1.4956487678e+00
1.4479453944e+01 1.5468297958e+00
1.5294822408e+01 1.5942679051e+00
1.6115401223e+01 1.6380644585e+00
1.6941469919e+01 1.6783265493e+00
1.7773309905e+01 1.7152223754e+00
1.8611204551e+01 1.7488915958e+00
1.9455439297e+01 1.7794698725e+00
2.0306301738e+01 1.8070720961e+00
2.1164081729e+01 1.8318340452e+00
2.2029071483e+01 1.8539225398e+00
2.2901565666e+01 1.8735416312e+00
2.3781861504e+01 1.8909349847e+00
2.4670258877e+01 1.9063633318e+00
2.5567060427e+01 1.9201030450e+00
2.6472571660e+01 1.9323976835e+00
2.7387101046e+01 1.9434486631e+00
2.8310960130e+01 1.9533786813e+00
2.9244463634e+01 1.9622786940e+00
3.0187929564e+01 1.9702116448e+00
3.1141679324e+01 1.9772583872e+00
3.2106037817e+01 1.9834917837e+00
3.3081333562e+01 1.9890014942e+00
3.4067898803e+01 1.9938549920e+00
3.5066069625e+01 1.9981047819e+00
3.6076186064e+01 2.0017380399e+00
3.7098592226e+01 2.0047125184e+00
3.8133636406e+01 2.0069690171e+00
3.9181671201e+01 2.0084881258e+00
4.0243053635e+01 2.0092766741e+00
4.1318145279e+01 2.0093759608e+00
4.2407312375e+01 2.0088149545e+00
4.3510925957e+01 2.0076249092e+00
4.4629361984e+01 2.0058328459e+00
4.5763001462e+01 2.0034976753e+00
4.6912230577e+01 2.0007127209e+00
4.8077440826e+01 1.9976267678e+00
4.9259029150e+01 1.9943920197e+00
5.0457398069e+01 1.9911184586e+00
5.1672955819e+01 1.9878197720e+00
5.2906116493e+01 1.9844069035e+00
5.4157300179e+01 1.9807087401e+00
5.5426933107e+01 1.9765625079e+00
5.6715447790e+01 1.9718758231e+00
5.8023283173e+01 1.9666413233e+00
5.9350884784e+01 1.9609026142e+00
6.0698704885e+01 1.9547489586e+00
6.2067202624e+01 1.9482806981e+00
6.3456844193e+01 1.9415800609e+00
6.4868102990e+01 1.9346826400e+00
6.6301459772e+01 1.9275887732e+00
6.7757402829e+01 1.9203121637e+00
6.9236428142e+01 1.9129056799e+00
7.0739039556e+01 1.9054409982e+00
7.2265748952e+01 1.8979597810e+00
7.3817076418e+01 1.8904249604e+00
7.5393550430e+01 1.8827754657e+00
7.6995708031e+01 1.8749972005e+00
7.8624095011e+01 1.8670643548e+00
8.0279266098e+01 1.8588575396e+00
8.1961785143e+01 1.8502866286e+00
8.3672225313e+01 1.8414490616e+00
8.5411169286e+01 1.8325394432e+00
8.7179209453e+01 1.8236833611e+00
8.8976948115e+01 1.8148603153e+00
9.0804997688e+01 1.8060402755e+00
9.2663980918e+01 1.7972817010e+00
9.4554531086e+01 1.7887205593e+00
9.6477292228e+01 1.7805573122e+00
9.8432919351e+01 1.7729513492e+00
1.0042207866e+02 1.7658541345e+00
1.0244544778e+02 1.7589686899e+00
1.0450371600e+02 1.7520099450e+00
1.0659758449e+02 1.7449699238e+00
1.0872776654e+02 1.7379414488e+00
1.1089498782e+02 1.7309585291e+00
1.1309998661e+02 1.7240562882e+00
1.1534351409e+02 1.7172594962e+00
1.1762633451e+02 1.7104184614e+00
1.1994922556e+02 1.7032857843e+00
1.2231297854e+02 1.6956837131e+00
1.2471839870e+02 1.6876323297e+00
1.2716630546e+02 1.6794464816e+00
1.2965753273e+02 1.6714396975e+00
1.3219292918e+02 1.6637170713e+00
1.3477335850e+02 1.6561544496e+00
1.3739969976e+02 1.6484076134e+00
1.4007284764e+02 1.6400524051e+00
1.4279371277e+02 1.6307999140e+00
1.4556322205e+02 1.6206310118e+00
1.4838231894e+02 1.6097495477e+00
1.5125196379e+02 1.5985150452e+00
1.5417313418e+02 1.5874289729e+00
1.5714682523e+02 1.5765891079e+00
1.6017404996e+02 1.5655284214e+00
1.6325583964e+02 1.5538762582e+00
1.6639324409e+02 1.5416888024e+00
1.6958733211e+02 1.5291315074e+00
1.7283919180e+02 1.5163702382e+00
1.7614993094e+02 1.5035612669e+00
1.7952067737e+02 1.4904515602e+00
1.8295257936e+02 1.4767121406e+00
1.8644680602e+02 1.4624514114e+00
1.9000454771e+02 1.4479658388e+00
1.9362701641e+02 1.4327252986e+00
1.9731544613e+02 1.4160682038e+00
2.0107109340e+02 1.3984730499e+00
2.0489523759e+02 1.3808621890e+00
2.0878918146e+02 1.3634746514e+00
2.1275425151e+02 1.3458077910e+00
2.1679179849e+02 1.3270853432e+00
2.2090319782e+02 1.3068911188e+00
2.2508985010e+02 1.2855539831e+00
2.2935318154e+02 1.2632326916e+00
2.3369464451e+02 1.2399232370e+00
2.3811571797e+02 1.2160071021e+00
2.4261790799e+02 1.1918479234e+00
2.4720274829e+02 1.1676438518e+00
2.5187180076e+02 1.1434761326e+00
2.5662665594e+02 1.1189168823e+00
2.6146893364e+02 1.0934571483e+00
2.6640028341e+02 1.0667077943e+00
2.7142238519e+02 1.0382513943e+00
2.7653694978e+02 1.0086217382e+00
2.8174571954e+02 9.7874849884e-01
2.8705046887e+02 9.4841266851e-01
2.9245300490e+02 9.1674245138e-01
2.9795516805e+02 8.8354108070e-01
3.0355883269e+02 8.4850247195e-01
3.0926590777e+02 8.1295145388e-01
3.1507833746e+02 7.7720942489e-01
3.2099810182e+02 7.4144874408e-01
3.2702721749e+02 7.0580240379e-01
3.3316773833e+02 6.6922141406e-01
3.3942175615e+02 6.3195342701e-01
3.4579140141e+02 5.9422789744e-01
3.5227884389e+02 5.5675243065e-01
3.5888629334e+02 5.1943814852e-01
3.6561600013e+02 4.8286221526e-01
3.7247025564e+02 4.4689629363e-01
3.7945139238e+02 4.1149541056e-01
3.8656178361e+02 3.7612866062e-01
3.9380384183e+02 3.4198138810e-01
4.0118001554e+02 3.1000772284e-01
4.0869278313e+02 2.8000883186e-01
4.1634464207e+02 2.5137339555e-01
4.2413809122e+02 2.2377715107e-01
4.3207560294e+02 1.9725589715e-01
4.4015958123e+02 1.7240811082e-01
4.4839230158e+02 1.4954618823e-01
4.5677582794e+02 1.2862137361e-01
4.6531190345e+02 1.0972008028e-01
4.7400181292e+02 9.3051232159e-02
4.8284621863e+02 7.8561373412e-02
4.9184497480e+02 6.5635927108e-02
5.0099693186e+02 5.4236949248e-02
5.1029974625e+02 4.4546962043e-02
5.1974971627e+02 3.6555749531e-02
5.2934166651e+02 2.9674075851e-02
5.3906890265e+02 2.3897299721e-02
5.4892325388e+02 1.9268553184e-02
5.5889521190e+02 1.5606028915e-02
5.6897416497e+02 1.2486634096e-02
5.7914871332e+02 1.0048531653e-02
5.8940704153e+02 8.1656439842e-03
5.9973731589e+02 6.6893544804e-03
6.1012807113e+02 5.5869998081e-03
6.2056855339e+02 4.7508461960e-03
6.3104899243e+02 4.0535756706e-03
6.4156078668e+02 3.4359749090e-03
6.5209659581e+02 2.9270658264e-03
6.6265034658e+02 2.5374933198e-03
6.7321716636e+02 2.2311136285e-03
6.8379326367e+02 1.9856725499e-03
6.9437577694e+02 1.7853804429e-03
7.0496261119e+02 1.6100700827e-03
7.1555227852e+02 1.4619435778e-03
7.2614375372e+02 1.3364563343e-03
7.3673635149e+02 1.2282282647e-03
7.4732962734e+02 1.1330088781e-03
7.5792330156e+02 1.0500093865e-03
7.6851720338e+02 9.7793746392e-04
7.7911123163e+02 9.1481667474e-04
7.8970532814e+02 8.5919403100e-04
8.0029946048e+02 8.1000169228e-04
8.1089361110e+02 7.6630275125e-04
8.2148777078e+02 7.2740607750e-04
8.3208193482e+02 6.9265594452e-04
8.4267610090e+02 6.6158613697e-04
8.5327026791e+02 6.3372044264e-04
8.6386443532e+02 6.0874426765e-04
8.7445860292e+02 5.8630460843e-04
8.8505277058e+02 5.6618512298e-04
8.9564693828e+02 5.4810806186e-04
9.0624110599e+02 5.3191293363e-04
9.1683527370e+02 5.1736406296e-04
9.2742944141e+02 5.0433507774e-04
9.3802360913e+02 4.9262398294e-04
9.4861777684e+02 4.8213999551e-04
9.5921194456e+02 4.7271928387e-04
9.6980611227e+02 4.6430342165e-04
9.8040027999e+02 4.5675347069e-04
9.9099444770e+02 4.5002403103e-04
1.0015886154e+03 4.4398731947e-04
1.0121827831e+03 4.3860494405e-04
1.0227769508e+03 4.3376376169e-04
1.0333711186e+03 4.2943879109e-04
1.0439652863e+03 4.2554052783e-04
1.0545594540e+03 4.2206392426e-04
1.0651536217e+03 4.1894334909e-04
1.0757477894e+03 4.1618438405e-04
1.0863419571e+03 4.1372706251e-04
1.0969361249e+03 4.1157082979e-04
1.1075302926e+03 4.0965437410e-04
1.1181244603e+03 4.0797832264e-04
1.1287186280e+03 4.0649447070e-04
1.1393127957e+03 4.0521727801e-04
1.1499069634e+03 4.0411894281e-04
1.1605011311e+03 4.0322810497e-04
1.1710952989e+03 4.0252949558e-04
1.1816894666e+03 4.0205017608e-04
1.1922836343e+03 4.0176640459e-04
1.2028778020e+03 4.0169012390e-04
1.2134719697e+03 4.0178470592e-04
1.2240661374e+03 4.0205598304e-04
1.2346603051e+03 4.0246451540e-04
1.2452544729e+03 4.0302037749e-04
1.2558486406e+03 4.0368106950e-04
1.2664428083e+03 4.0445916407e-04
1.2770369760e+03 4.0530292795e-04
1.2876311437e+03 4.0622885102e-04
1.2982253114e+03 4.0717778214e-04
1.3088194791e+03 4.0817891127e-04
1.3194136469e+03 4.0917372165e-04
1.3300078146e+03 4.1021394296e-04
1.3406019823e+03 4.1124191462e-04
1.3511961500e+03 4.1232438886e-04
1.3617903177e+03 4.1339015238e-04
1.3723844854e+03 4.1451126034e-04
1.3829786531e+03 4.1559992359e-04
1.3935728209e+03 4.1673548586e-04
1.4041669886e+03 4.1781884223e-04
1.4147611563e+03 4.1894188805e-04
1.4253553240e+03 4.2000268190e-04
1.4359494917e+03 4.2110935698e-04
1.4465436594e+03 4.2215757605e-04
1.4571378272e+03 4.2326592369e-04
1.4677319949e+03 4.2432147388e-04
1.4783261626e+03 4.2544884988e-04
1.4889203303e+03 4.2652205126e-04
1.4995144980e+03 4.2766912108e-04
1.5101086657e+03 4.2874777389e-04
1.5207028334e+03 4.2989284841e-04
1.5312970012e+03 4.3095223246e-04
1.5418911689e+03 4.3207834247e-04
1.5524853366e+03 4.3311552464e-04
1.5630795043e+03 4.3423457552e-04
1.5736736720e+03 4.3526910514e-04
1.5842678397e+03 4.3639796938e-04
1.5948620074e+03 4.3743510180e-04
1.6054561752e+03 4.3856293029e-04
1.6160503429e+03 4.3957821788e-04
1.6266445106e+03 4.4067204163e-04
1.6372386783e+03 4.4163094561e-04
1.6478328460e+03 4.4265796573e-04
1.6584270137e+03 4.4352991740e-04
1.6690211814e+03 4.4445897910e-04
1.6796153492e+03 4.4520889034e-04
1.6902095169e+03 4.4600083693e-04
1.7008036846e+03 4.4658764545e-04
1.7113978523e+03 4.4720500904e-04
1.7219920200e+03 4.4759660282e-04
1.7325861877e+03 4.4801295915e-04
1.7431803555e+03 4.4818679994e-04
1.7537745232e+03 4.4838632933e-04
1.7643686909e+03 4.4834191527e-04
1.7749628586e+03 4.4834868189e-04
1.7855570263e+03 4.4813963186e-04
1.7961511940e+03 4.4803089026e-04
1.8067453617e+03 4.4774714531e-04
1.8173395295e+03 4.4761068141e-04
1.8279336972e+03 4.4732682433e-04
1.8385278649e+03 4.4721471404e-04
1.8491220326e+03 4.4695705724e-04
1.8597162003e+03 4.4686910208e-04
1.8703103680e+03 4.4661714615e-04
1.8809045357e+03 4.4652039710e-04
1.8914987035e+03 4.4624258253e-04
1.9020928712e+03 4.4611468160e-04
1.9126870389e+03 4.4580404899e-04
1.9232812066e+03 4.4564628167e-04
1.9338753743e+03 4.4530696093e-04
1.9444695420e+03 4.4511910485e-04
1.9550637097e+03 4.4475210800e-04
1.9656578775e+03 4.4454305347e-04
1.9762520452e+03 4.4417198487e-04
1.9868462129e+03 4.4397715497e-04
1.9974403806e+03 4.4363958752e-04
2.0080345483e+03 4.4348911969e-04
2.0186287160e+03 4.4320061683e-04
2.0292228837e+03 4.4309773336e-04
2.0398170515e+03 4.4285362824e-04
2.0504112192e+03 4.4279586148e-04
2.0610053869e+03 4.4259965708e-04
2.0715995546e+03 4.4259892605e-04
2.0821937223e+03 4.4246400065e-04
2.0927878900e+03 4.4253256654e-04
2.1033820578e+03 4.4246577178e-04
2.1139762255e+03 4.4261255712e-04
2.1245703932e+03 4.4262945835e-04
2.1351645609e+03 4.4288547701e-04
2.1457587286e+03 4.4302821152e-04
2.1563528963e+03 4.4344464048e-04
2.1669470640e+03 4.4376246410e-04
2.1775412318e+03 4.4438895073e-04
2.1881353995e+03 4.4492775898e-04
2.1987295672e+03 4.4582034594e-04
2.2093237349e+03 4.4664610024e-04
2.2199179026e+03 4.4789678669e-04
2.2305120703e+03 4.4911943657e-04
2.2411062380e+03 4.5086671031e-04
2.2517004058e+03 4.5263892064e-04
2.2622945735e+03 4.5505973058e-04
2.2728887412e+03 4.5756435869e-04
2.2834829089e+03 4.6085134058e-04
2.2940770766e+03 4.6426406225e-04
2.3046712443e+03 4.6857284231e-04
2.3152654120e+03 4.7300742551e-04
2.3258595798e+03 4.7841362212e-04
2.3364537475e+03 4.8390455087e-04
2.3470479152e+03 4.9040910470e-04
2.3576420829e+03 4.9693020438e-04
2.3682362506e+03 5.0447590749e-04
2.3788304183e+03 5.1195311142e-04
2.3894245861e+03 5.2043893177e-04
2.4000187538e+03 5.2877946736e-04
2.4106129215e+03 5.3810974080e-04
2.4212070892e+03 5.4726708570e-04
2.4318012569e+03 5.5741705673e-04
2.4423954246e+03 5.6744057330e-04
2.4529895923e+03 5.7848118155e-04
2.4635837601e+03 5.8951817149e-04
2.4741779278e+03 6.0160746817e-04
2.4847720955e+03 6.1389502002e-04
2.4953662632e+03 6.2728104952e-04
2.5059604309e+03 6.4115784227e-04
2.5165545986e+03 6.5619607870e-04
2.5271487663e+03 6.7211027508e-04
2.5377429341e+03 6.8925276844e-04
2.5483371018e+03 7.0771492954e-04
2.5589312695e+03 7.2742907731e-04
2.5695254372e+03 7.4889054951e-04
2.5801196049e+03 7.7151771303e-04
2.5907137726e+03 7.9620543271e-04
2.6013079403e+03 8.2179766995e-04
2.6119021081e+03 8.4953448428e-04
2.6224962758e+03 8.7768691905e-04
2.6330904435e+03 9.0768743520e-04
2.6436846112e+03 9.3732930107e-04
2.6542787789e+03 9.6790616996e-04
2.6648729466e+03 9.9697936096e-04
2.6754671143e+03 1.0251551763e-03
2.6860612821e+03 1.0503056006e-03
2.6966554498e+03 1.0717257105e-03
2.7072496175e+03 1.0886251908e-03
2.7178437852e+03 1.0987131561e-03
2.7284379529e+03 1.1048749628e-03
