# Rotated Reynolds stress Morkovin's scaling
# Columns: y_plus    rho u''u''rotated/tau_wall
3.8646263475e-01 2.4857497871e-02
1.1533752036e+00 2.1991265028e-01
1.9209634831e+00 6.0218958215e-01
2.6894093988e+00 1.1544894617e+00
3.4589138713e+00 1.8420589415e+00
4.2296938542e+00 2.6152185324e+00
5.0019793562e+00 3.4190484516e+00
5.7760106829e+00 4.2034521785e+00
6.5520360469e+00 4.9299467885e+00
7.3303096133e+00 5.5737518462e+00
8.1110899864e+00 6.1228035563e+00
8.8946390963e+00 6.5747720920e+00
9.6812214258e+00 6.9339246809e+00
1.0471103504e+01 7.2082295601e+00
1.1264553601e+01 7.4074056286e+00
1.2061841567e+01 7.5415803230e+00
1.2863238767e+01 7.6205443728e+00
1.3669018081e+01 7.6532510082e+00
1.4479453944e+01 7.6475887843e+00
1.5294822408e+01 7.6103655902e+00
1.6115401223e+01 7.5474425888e+00
1.6941469919e+01 7.4639403018e+00
1.7773309905e+01 7.3643565441e+00
1.8611204551e+01 7.2526362788e+00
1.9455439297e+01 7.1321476408e+00
2.0306301738e+01 7.0057219283e+00
2.1164081729e+01 6.8756689160e+00
2.2029071483e+01 6.7438444624e+00
2.2901565666e+01 6.6116695873e+00
2.3781861504e+01 6.4802139605e+00
2.4670258877e+01 6.3502610637e+00
2.5567060427e+01 6.2223884337e+00
2.6472571660e+01 6.0969914993e+00
2.7387101046e+01 5.9743292870e+00
2.8310960130e+01 5.8545686266e+00
2.9244463634e+01 5.7378459746e+00
3.0187929564e+01 5.6243102555e+00
3.1141679324e+01 5.5141243099e+00
3.2106037817e+01 5.4074389466e+00
3.3081333562e+01 5.3043690262e+00
3.4067898803e+01 5.2049859771e+00
3.5066069625e+01 5.1092871934e+00
3.6076186064e+01 5.0172076847e+00
3.7098592226e+01 4.9286349734e+00
3.8133636406e+01 4.8434449956e+00
3.9181671201e+01 4.7614806497e+00
4.0243053635e+01 4.6825754060e+00
4.1318145279e+01 4.6065820940e+00
4.2407312375e+01 4.5334058159e+00
4.3510925957e+01 4.4629438046e+00
4.4629361984e+01 4.3950964267e+00
4.5763001462e+01 4.3298039796e+00
4.6912230577e+01 4.2671017208e+00
4.8077440826e+01 4.2070421089e+00
4.9259029150e+01 4.1495844934e+00
5.0457398069e+01 4.0944995638e+00
5.1672955819e+01 4.0414950292e+00
5.2906116493e+01 3.9903841084e+00
5.4157300179e+01 3.9411634337e+00
5.5426933107e+01 3.8939083589e+00
5.6715447790e+01 3.8486677606e+00
5.8023283173e+01 3.8053930597e+00
5.9350884784e+01 3.7640148169e+00
6.0698704885e+01 3.7244525377e+00
6.2067202624e+01 3.6865994134e+00
6.3456844193e+01 3.6502866202e+00
6.4868102990e+01 3.6153330898e+00
6.6301459772e+01 3.5816078361e+00
6.7757402829e+01 3.5490931026e+00
6.9236428142e+01 3.5178310513e+00
7.0739039556e+01 3.4878664844e+00
7.2265748952e+01 3.4590976748e+00
7.3817076418e+01 3.4312696568e+00
7.5393550430e+01 3.4041960847e+00
7.6995708031e+01 3.3779382098e+00
7.8624095011e+01 3.3526152933e+00
8.0279266098e+01 3.3282001140e+00
8.1961785143e+01 3.3045038968e+00
8.3672225313e+01 3.2812941520e+00
8.5411169286e+01 3.2583583215e+00
8.7179209453e+01 3.2355378698e+00
8.8976948115e+01 3.2127502736e+00
9.0804997688e+01 3.1900729530e+00
9.2663980918e+01 3.1676464127e+00
9.4554531086e+01 3.1454683156e+00
9.6477292228e+01 3.1233920250e+00
9.8432919351e+01 3.1013900568e+00
1.0042207866e+02 3.0795484511e+00
1.0244544778e+02 3.0579592286e+00
1.0450371600e+02 3.0366530152e+00
1.0659758449e+02 3.0156398632e+00
1.0872776654e+02 2.9949739661e+00
1.1089498782e+02 2.9747363843e+00
1.1309998661e+02 2.9550661479e+00
1.1534351409e+02 2.9358070441e+00
1.1762633451e+02 2.9163095357e+00
1.1994922556e+02 2.8962017017e+00
1.2231297854e+02 2.8755997334e+00
1.2471839870e+02 2.8547525840e+00
1.2716630546e+02 2.8338484925e+00
1.2965753273e+02 2.8127655451e+00
1.3219292918e+02 2.7912640373e+00
1.3477335850e+02 2.7693702977e+00
1.3739969976e+02 2.7471916953e+00
1.4007284764e+02 2.7246589468e+00
1.4279371277e+02 2.7017751759e+00
1.4556322205e+02 2.6787451024e+00
1.4838231894e+02 2.6555244158e+00
1.5125196379e+02 2.6317949776e+00
1.5417313418e+02 2.6073216423e+00
1.5714682523e+02 2.5824035173e+00
1.6017404996e+02 2.5575034527e+00
1.6325583964e+02 2.5326425643e+00
1.6639324409e+02 2.5077068757e+00
1.6958733211e+02 2.4827859483e+00
1.7283919180e+02 2.4578026582e+00
1.7614993094e+02 2.4323720919e+00
1.7952067737e+02 2.4062550007e+00
1.8295257936e+02 2.3794942383e+00
1.8644680602e+02 2.3523038575e+00
1.9000454771e+02 2.3250235023e+00
1.9362701641e+02 2.2975315098e+00
1.9731544613e+02 2.2692443522e+00
2.0107109340e+02 2.2394877973e+00
2.0489523759e+02 2.2081234209e+00
2.0878918146e+02 2.1759556554e+00
2.1275425151e+02 2.1431623401e+00
2.1679179849e+02 2.1094845854e+00
2.2090319782e+02 2.0749248055e+00
2.2508985010e+02 2.0398402955e+00
2.2935318154e+02 2.0045274300e+00
2.3369464451e+02 1.9690911394e+00
2.3811571797e+02 1.9333561518e+00
2.4261790799e+02 1.8968703511e+00
2.4720274829e+02 1.8601497266e+00
2.5187180076e+02 1.8232228314e+00
2.5662665594e+02 1.7858282521e+00
2.6146893364e+02 1.7483687578e+00
2.6640028341e+02 1.7106590409e+00
2.7142238519e+02 1.6716021313e+00
2.7653694978e+02 1.6311673580e+00
2.8174571954e+02 1.5896254456e+00
2.8705046887e+02 1.5462767089e+00
2.9245300490e+02 1.5008106550e+00
2.9795516805e+02 1.4540532143e+00
3.0355883269e+02 1.4067967245e+00
3.0926590777e+02 1.3587021121e+00
3.1507833746e+02 1.3104007547e+00
3.2099810182e+02 1.2609680445e+00
3.2702721749e+02 1.2098723769e+00
3.3316773833e+02 1.1579658180e+00
3.3942175615e+02 1.1046648412e+00
3.4579140141e+02 1.0493364392e+00
3.5227884389e+02 9.9249092322e-01
3.5888629334e+02 9.3423461456e-01
3.6561600013e+02 8.7477026519e-01
3.7247025564e+02 8.1482467566e-01
3.7945139238e+02 7.5445643731e-01
3.8656178361e+02 6.9357001404e-01
3.9380384183e+02 6.3264025174e-01
4.0118001554e+02 5.7170792722e-01
4.0869278313e+02 5.1184543275e-01
4.1634464207e+02 4.5408446401e-01
4.2413809122e+02 3.9857465398e-01
4.3207560294e+02 3.4701615651e-01
4.4015958123e+02 2.9991983940e-01
4.4839230158e+02 2.5576263525e-01
4.5677582794e+02 2.1565709017e-01
4.6531190345e+02 1.8020445489e-01
4.7400181292e+02 1.4966426031e-01
4.8284621863e+02 1.2336827222e-01
4.9184497480e+02 1.0094484577e-01
5.0099693186e+02 8.2095182716e-02
5.1029974625e+02 6.6440348533e-02
5.1974971627e+02 5.3720638570e-02
5.2934166651e+02 4.3905892415e-02
5.3906890265e+02 3.6084707577e-02
5.4892325388e+02 2.9725305139e-02
5.5889521190e+02 2.4525392920e-02
5.6897416497e+02 2.0441490379e-02
5.7914871332e+02 1.7257156072e-02
5.8940704153e+02 1.4762183239e-02
5.9973731589e+02 1.2792924008e-02
6.1012807113e+02 1.1075923552e-02
6.2056855339e+02 9.6089806016e-03
6.3104899243e+02 8.4072182220e-03
6.4156078668e+02 7.4047675670e-03
6.5209659581e+02 6.5624655839e-03
6.6265034658e+02 5.8619278619e-03
6.7321716636e+02 5.2595291121e-03
6.8379326367e+02 4.7339381865e-03
6.9437577694e+02 4.2812766953e-03
7.0496261119e+02 3.8871832103e-03
7.1555227852e+02 3.5430182295e-03
7.2614375372e+02 3.2450068812e-03
7.3673635149e+02 2.9780333503e-03
7.4732962734e+02 2.7384563353e-03
7.5792330156e+02 2.5295128192e-03
7.6851720338e+02 2.3430709413e-03
7.7911123163e+02 2.1757375575e-03
7.8970532814e+02 2.0252091317e-03
8.0029946048e+02 1.8894048386e-03
8.1089361110e+02 1.7665149659e-03
8.2148777078e+02 1.6550305152e-03
8.3208193482e+02 1.5535900119e-03
8.4267610090e+02 1.4610462590e-03
8.5327026791e+02 1.3764000160e-03
8.6386443532e+02 1.2987995589e-03
8.7445860292e+02 1.2275290367e-03
8.8505277058e+02 1.1619279607e-03
8.9564693828e+02 1.1014797100e-03
9.0624110599e+02 1.0456691446e-03
9.1683527370e+02 9.9412085092e-04
9.2742944141e+02 9.4643209925e-04
9.3802360913e+02 9.0233886566e-04
9.4861777684e+02 8.6150852848e-04
9.5921194456e+02 8.2372530020e-04
9.6980611227e+02 7.8867043034e-04
9.8040027999e+02 7.5613798092e-04
9.9099444770e+02 7.2582836418e-04
1.0015886154e+03 6.9756679357e-04
1.0121827831e+03 6.7111067125e-04
1.0227769508e+03 6.4634576190e-04
1.0333711186e+03 6.2308935473e-04
1.0439652863e+03 6.0127019985e-04
1.0545594540e+03 5.8074010778e-04
1.0651536217e+03 5.6145101874e-04
1.0757477894e+03 5.4328007177e-04
1.0863419571e+03 5.2620310286e-04
1.0969361249e+03 5.1012793934e-04
1.1075302926e+03 4.9505455985e-04
1.1181244603e+03 4.8090449459e-04
1.1287186280e+03 4.6767534392e-04
1.1393127957e+03 4.5527525352e-04
1.1499069634e+03 4.4368990242e-04
1.1605011311e+03 4.3281960283e-04
1.1710952989e+03 4.2265391327e-04
1.1816894666e+03 4.1310329317e-04
1.1922836343e+03 4.0417126706e-04
1.2028778020e+03 3.9578217120e-04
1.2134719697e+03 3.8794341868e-04
1.2240661374e+03 3.8057614866e-04
1.2346603051e+03 3.7367111151e-04
1.2452544729e+03 3.6713721413e-04
1.2558486406e+03 3.6095740676e-04
1.2664428083e+03 3.5505463299e-04
1.2770369760e+03 3.4943129868e-04
1.2876311437e+03 3.4404062575e-04
1.2982253114e+03 3.3890246455e-04
1.3088194791e+03 3.3399135004e-04
1.3194136469e+03 3.2934117356e-04
1.3300078146e+03 3.2494984600e-04
1.3406019823e+03 3.2084921674e-04
1.3511961500e+03 3.1701489634e-04
1.3617903177e+03 3.1342526685e-04
1.3723844854e+03 3.1002541586e-04
1.3829786531e+03 3.0678573157e-04
1.3935728209e+03 3.0368192331e-04
1.4041669886e+03 3.0070785399e-04
1.4147611563e+03 2.9786530579e-04
1.4253553240e+03 2.9515054048e-04
1.4359494917e+03 2.9257510778e-04
1.4465436594e+03 2.9012992403e-04
1.4571378272e+03 2.8783374821e-04
1.4677319949e+03 2.8567277191e-04
1.4783261626e+03 2.8367311374e-04
1.4889203303e+03 2.8181396496e-04
1.4995144980e+03 2.8012238665e-04
1.5101086657e+03 2.7856152034e-04
1.5207028334e+03 2.7715664261e-04
1.5312970012e+03 2.7585813879e-04
1.5418911689e+03 2.7469721713e-04
1.5524853366e+03 2.7361582500e-04
1.5630795043e+03 2.7265171224e-04
1.5736736720e+03 2.7173765080e-04
1.5842678397e+03 2.7091849893e-04
1.5948620074e+03 2.7011990076e-04
1.6054561752e+03 2.6939727731e-04
1.6160503429e+03 2.6867210337e-04
1.6266445106e+03 2.6800705836e-04
1.6372386783e+03 2.6731433813e-04
1.6478328460e+03 2.6665492215e-04
1.6584270137e+03 2.6593591312e-04
1.6690211814e+03 2.6522158548e-04
1.6796153492e+03 2.6442989166e-04
1.6902095169e+03 2.6363302283e-04
1.7008036846e+03 2.6276954647e-04
1.7113978523e+03 2.6191602919e-04
1.7219920200e+03 2.6103388144e-04
1.7325861877e+03 2.6019539676e-04
1.7431803555e+03 2.5938129956e-04
1.7537745232e+03 2.5865173620e-04
1.7643686909e+03 2.5799992358e-04
1.7749628586e+03 2.5746780438e-04
1.7855570263e+03 2.5704323324e-04
1.7961511940e+03 2.5673780737e-04
1.8067453617e+03 2.5651059454e-04
1.8173395295e+03 2.5634524975e-04
1.8279336972e+03 2.5617916116e-04
1.8385278649e+03 2.5600086933e-04
1.8491220326e+03 2.5575771967e-04
1.8597162003e+03 2.5546953339e-04
1.8703103680e+03 2.5510958297e-04
1.8809045357e+03 2.5472254487e-04
1.8914987035e+03 2.5430590969e-04
1.9020928712e+03 2.5390899971e-04
1.9126870389e+03 2.5354906651e-04
1.9232812066e+03 2.5325364453e-04
1.9338753743e+03 2.5305345362e-04
1.9444695420e+03 2.5293020673e-04
1.9550637097e+03 2.5292672234e-04
1.9656578775e+03 2.5296538412e-04
1.9762520452e+03 2.5310962700e-04
1.9868462129e+03 2.5323240798e-04
1.9974403806e+03 2.5344305656e-04
2.0080345483e+03 2.5358624204e-04
2.0186287160e+03 2.5382959126e-04
2.0292228837e+03 2.5398391559e-04
2.0398170515e+03 2.5425971913e-04
2.0504112192e+03 2.5441364656e-04
2.0610053869e+03 2.5469361642e-04
2.0715995546e+03 2.5480241762e-04
2.0821937223e+03 2.5503811140e-04
2.0927878900e+03 2.5505342688e-04
2.1033820578e+03 2.5519665986e-04
2.1139762255e+03 2.5506809161e-04
2.1245703932e+03 2.5506684441e-04
2.1351645609e+03 2.5475767490e-04
2.1457587286e+03 2.5460305614e-04
2.1563528963e+03 2.5415829406e-04
2.1669470640e+03 2.5394324298e-04
2.1775412318e+03 2.5351135736e-04
2.1881353995e+03 2.5339742911e-04
2.1987295672e+03 2.5315550554e-04
2.2093237349e+03 2.5328631669e-04
2.2199179026e+03 2.5337917393e-04
2.2305120703e+03 2.5386246473e-04
2.2411062380e+03 2.5442113628e-04
2.2517004058e+03 2.5536406617e-04
2.2622945735e+03 2.5653091319e-04
2.2728887412e+03 2.5804491519e-04
2.2834829089e+03 2.5994515369e-04
2.2940770766e+03 2.6209494385e-04
2.3046712443e+03 2.6476739918e-04
2.3152654120e+03 2.6750927202e-04
2.3258595798e+03 2.7085764744e-04
2.3364537475e+03 2.7401177158e-04
2.3470479152e+03 2.7779233000e-04
2.3576420829e+03 2.8104762575e-04
2.3682362506e+03 2.8489208313e-04
2.3788304183e+03 2.8784725147e-04
2.3894245861e+03 2.9132663182e-04
2.4000187538e+03 2.9357472025e-04
2.4106129215e+03 2.9630056517e-04
2.4212070892e+03 2.9753339017e-04
2.4318012569e+03 2.9925962892e-04
2.4423954246e+03 2.9935908646e-04
2.4529895923e+03 3.0005703852e-04
2.4635837601e+03 2.9914306781e-04
2.4741779278e+03 2.9901784210e-04
2.4847720955e+03 2.9743657605e-04
2.4953662632e+03 2.9688610921e-04
2.5059604309e+03 2.9514993912e-04
2.5165545986e+03 2.9467871431e-04
2.5271487663e+03 2.9337992861e-04
2.5377429341e+03 2.9351445551e-04
2.5483371018e+03 2.9328081092e-04
2.5589312695e+03 2.9455263333e-04
2.5695254372e+03 2.9608148798e-04
2.5801196049e+03 2.9910534882e-04
2.5907137726e+03 3.0330183469e-04
2.6013079403e+03 3.0899120826e-04
2.6119021081e+03 3.1718093010e-04
2.6224962758e+03 3.2695136813e-04
2.6330904435e+03 3.4080292911e-04
2.6436846112e+03 3.5620593035e-04
2.6542787789e+03 3.7668239479e-04
2.6648729466e+03 3.9782970428e-04
2.6754671143e+03 4.2294447058e-04
2.6860612821e+03 4.4619013063e-04
2.6966554498e+03 4.6920764349e-04
2.7072496175e+03 4.8669441775e-04
2.7178437852e+03 4.9821458910e-04
2.7284379529e+03 5.0349879869e-04
