# Rotated two-point auto-correlation R_33^R (mean-aligned) — case DNS_re250_mr06_11 (MR06), y^+ = 15
# Definition: R_{ij}^R is computed by rotating (x,z) into the local mean-flow frame.
# Columns: delta_z_plus    R
0.0000000000e+00 1.0000000000e+00
3.6952202740e+00 9.8005245271e-01
7.3904405480e+00 9.2486765052e-01
1.1085660822e+01 8.4517043933e-01
1.4780881096e+01 7.5232275229e-01
1.8476101370e+01 6.5544531512e-01
2.2171321644e+01 5.6083941755e-01
2.5866541918e+01 4.7235235554e-01
2.9561762192e+01 3.9204334623e-01
3.3256982466e+01 3.2077884552e-01
3.6952202740e+01 2.5866148049e-01
4.0647423014e+01 2.0533908775e-01
4.4342643288e+01 1.6019009282e-01
4.8037863562e+01 1.2243068034e-01
5.1733083836e+01 9.1190855423e-02
5.5428304110e+01 6.5588542017e-02
5.9123524384e+01 4.4793054697e-02
6.2818744658e+01 2.8063010923e-02
6.6513964932e+01 1.4752827560e-02
7.0209185206e+01 4.3022090255e-03
7.3904405480e+01 -3.7856033561e-03
7.7599625754e+01 -9.9586084140e-03
8.1294846028e+01 -1.4601214967e-02
8.4990066302e+01 -1.8019552261e-02
8.8685286576e+01 -2.0456287739e-02
9.2380506850e+01 -2.2113303398e-02
9.6075727124e+01 -2.3166601028e-02
9.9770947398e+01 -2.3779053667e-02
1.0346616767e+02 -2.4105873565e-02
1.0716138795e+02 -2.4289504090e-02
1.1085660822e+02 -2.4446194564e-02
1.1455182849e+02 -2.4652280485e-02
1.1824704877e+02 -2.4943788082e-02
1.2194226904e+02 -2.5329623386e-02
1.2563748932e+02 -2.5802304001e-02
1.2933270959e+02 -2.6336395374e-02
1.3302792986e+02 -2.6887234415e-02
1.3672315014e+02 -2.7405485962e-02
1.4041837041e+02 -2.7859847604e-02
1.4411359069e+02 -2.8240017864e-02
1.4780881096e+02 -2.8535870765e-02
1.5150403123e+02 -2.8725416563e-02
1.5519925151e+02 -2.8785546917e-02
1.5889447178e+02 -2.8705146448e-02
1.6258969206e+02 -2.8482372302e-02
1.6628491233e+02 -2.8117393665e-02
1.6998013260e+02 -2.7614504784e-02
1.7367535288e+02 -2.6985377140e-02
1.7737057315e+02 -2.6247899148e-02
1.8106579343e+02 -2.5429583127e-02
1.8476101370e+02 -2.4572914154e-02
1.8845623397e+02 -2.3730631194e-02
1.9215145425e+02 -2.2948555458e-02
1.9584667452e+02 -2.2248024297e-02
1.9954189480e+02 -2.1623941118e-02
2.0323711507e+02 -2.1058314605e-02
2.0693233534e+02 -2.0538367452e-02
2.1062755562e+02 -2.0063770221e-02
2.1432277589e+02 -1.9638008188e-02
2.1801799617e+02 -1.9259942707e-02
2.2171321644e+02 -1.8926742325e-02
2.2540843671e+02 -1.8640946287e-02
2.2910365699e+02 -1.8413113423e-02
2.3279887726e+02 -1.8257134283e-02
2.3649409754e+02 -1.8180156365e-02
2.4018931781e+02 -1.8165745021e-02
2.4388453808e+02 -1.8162448372e-02
2.4757975836e+02 -1.8096938249e-02
2.5127497863e+02 -1.7904060194e-02
2.5497019891e+02 -1.7548812167e-02
2.5866541918e+02 -1.7027969839e-02
2.6236063945e+02 -1.6359153348e-02
2.6605585973e+02 -1.5571573426e-02
2.6975108000e+02 -1.4700990533e-02
2.7344630028e+02 -1.3786270004e-02
2.7714152055e+02 -1.2870317253e-02
2.8083674082e+02 -1.1999748755e-02
2.8453196110e+02 -1.1214795299e-02
2.8822718137e+02 -1.0540891587e-02
2.9192240165e+02 -9.9882877789e-03
2.9561762192e+02 -9.5499385417e-03
2.9931284219e+02 -9.2022696786e-03
3.0300806247e+02 -8.9141988182e-03
3.0670328274e+02 -8.6560539664e-03
3.1039850302e+02 -8.4080479550e-03
3.1409372329e+02 -8.1700406167e-03
3.1778894356e+02 -7.9615683775e-03
3.2148416384e+02 -7.8122749906e-03
3.2517938411e+02 -7.7506483279e-03
3.2887460439e+02 -7.7938793593e-03
3.3256982466e+02 -7.9461573042e-03
3.3626504493e+02 -8.2055133124e-03
3.3996026521e+02 -8.5713590379e-03
3.4365548548e+02 -9.0464965760e-03
3.4735070576e+02 -9.6298776458e-03
3.5104592603e+02 -1.0303651356e-02
3.5474114630e+02 -1.1025370764e-02
3.5843636658e+02 -1.1732423363e-02
3.6213158685e+02 -1.2356258437e-02
3.6582680713e+02 -1.2839175955e-02
3.6952202740e+02 -1.3139507533e-02
3.7321724767e+02 -1.3228764953e-02
3.7691246795e+02 -1.3091641561e-02
3.8060768822e+02 -1.2729876117e-02
3.8430290850e+02 -1.2168905456e-02
3.8799812877e+02 -1.1457438599e-02
3.9169334904e+02 -1.0654768371e-02
3.9538856932e+02 -9.8149137025e-03
3.9908378959e+02 -8.9798676335e-03
4.0277900987e+02 -8.1852815047e-03
4.0647423014e+02 -7.4735429566e-03
4.1016945041e+02 -6.8963194839e-03
4.1386467069e+02 -6.4944355710e-03
4.1755989096e+02 -6.2726849514e-03
4.2125511124e+02 -6.1901676515e-03
4.2495033151e+02 -6.1658987057e-03
4.2864555178e+02 -6.0964751379e-03
4.3234077206e+02 -5.8891675588e-03
4.3603599233e+02 -5.4990078557e-03
4.3973121261e+02 -4.9406199635e-03
4.4342643288e+02 -4.2695370863e-03
4.4712165315e+02 -3.5586004809e-03
4.5081687343e+02 -2.8850024939e-03
4.5451209370e+02 -2.3218248306e-03
4.5820731398e+02 -1.9239054469e-03
4.6190253425e+02 -1.7089655152e-03
4.6559775452e+02 -1.6523349789e-03
4.6929297480e+02 -1.7070436464e-03
4.7298819507e+02 -1.8301480452e-03
4.7668341534e+02 -1.9924958073e-03
4.8037863562e+02 -2.1759734230e-03
4.8407385589e+02 -2.3659712565e-03
4.8776907617e+02 -2.5418770681e-03
4.9146429644e+02 -2.6762069826e-03
4.9515951671e+02 -2.7446113112e-03
4.9885473699e+02 -2.7346782138e-03
5.0254995726e+02 -2.6483114658e-03
5.0624517754e+02 -2.5018387310e-03
5.0994039781e+02 -2.3209848129e-03
5.1363561808e+02 -2.1294490275e-03
5.1733083836e+02 -1.9413851029e-03
5.2102605863e+02 -1.7588996661e-03
5.2472127891e+02 -1.5692713860e-03
5.2841649918e+02 -1.3480011209e-03
5.3211171945e+02 -1.0718176560e-03
5.3580693973e+02 -7.3327874834e-04
5.3950216000e+02 -3.5196813450e-04
5.4319738028e+02 2.3149857978e-05
5.4689260055e+02 3.2556232320e-04
5.5058782082e+02 4.9072868144e-04
5.5428304110e+02 4.7087837523e-04
5.5797826137e+02 2.4585016028e-04
5.6167348165e+02 -1.7033215534e-04
5.6536870192e+02 -7.3871402504e-04
5.6906392219e+02 -1.4071722453e-03
5.7275914247e+02 -2.1063209346e-03
5.7645436274e+02 -2.7529599800e-03
5.8014958302e+02 -3.2808539704e-03
5.8384480329e+02 -3.6739422522e-03
5.8754002356e+02 -3.9680600245e-03
5.9123524384e+02 -4.2205122822e-03
5.9493046411e+02 -4.4750217414e-03
5.9862568439e+02 -4.7493076548e-03
6.0232090466e+02 -5.0447267314e-03
6.0601612493e+02 -5.3562140922e-03
6.0971134521e+02 -5.6780764740e-03
6.1340656548e+02 -6.0095149474e-03
6.1710178576e+02 -6.3507060879e-03
6.2079700603e+02 -6.6874375163e-03
6.2449222630e+02 -6.9832218018e-03
6.2818744658e+02 -7.1932171488e-03
6.3188266685e+02 -7.2902709789e-03
6.3557788713e+02 -7.2828274784e-03
6.3927310740e+02 -7.2070490035e-03
6.4296832767e+02 -7.0988184019e-03
6.4666354795e+02 -6.9724979523e-03
6.5035876822e+02 -6.8182215107e-03
6.5405398850e+02 -6.6075697320e-03
6.5774920877e+02 -6.3086523168e-03
6.6144442904e+02 -5.9169888614e-03
6.6513964932e+02 -5.4706985402e-03
6.6883486959e+02 -5.0301738715e-03
6.7253008987e+02 -4.6510761829e-03
6.7622531014e+02 -4.3772405816e-03
6.7992053041e+02 -4.2463458782e-03
6.8361575069e+02 -4.2837676638e-03
6.8731097096e+02 -4.4835698548e-03
6.9100619124e+02 -4.8015172232e-03
6.9470141151e+02 -5.1744330223e-03
6.9839663178e+02 -5.5505947687e-03
7.0209185206e+02 -5.9084386912e-03
7.0578707233e+02 -6.2534490916e-03
7.0948229261e+02 -6.6004083343e-03
7.1317751288e+02 -6.9607150591e-03
7.1687273315e+02 -7.3385637581e-03
7.2056795343e+02 -7.7230648807e-03
7.2426317370e+02 -8.0805394034e-03
7.2795839398e+02 -8.3639446672e-03
7.3165361425e+02 -8.5333978890e-03
7.3534883452e+02 -8.5692829949e-03
7.3904405480e+02 -8.4709978132e-03
7.4273927507e+02 -8.2467200336e-03
7.4643449535e+02 -7.9025228522e-03
7.5012971562e+02 -7.4340634753e-03
7.5382493589e+02 -6.8290017346e-03
7.5752015617e+02 -6.0842855537e-03
7.6121537644e+02 -5.2209510512e-03
7.6491059672e+02 -4.2805073757e-03
7.6860581699e+02 -3.3059524620e-03
7.7230103726e+02 -2.3265929825e-03
7.7599625754e+02 -1.3661278135e-03
7.7969147781e+02 -4.6268207868e-04
7.8338669809e+02 3.3383719990e-04
7.8708191836e+02 9.8250013183e-04
7.9077713863e+02 1.4614227222e-03
7.9447235891e+02 1.7695579428e-03
7.9816757918e+02 1.9240052825e-03
8.0186279946e+02 1.9471766842e-03
8.0555801973e+02 1.8516367332e-03
8.0925324000e+02 1.6399873290e-03
8.1294846028e+02 1.3179761758e-03
8.1664368055e+02 9.0684994166e-04
8.2033890083e+02 4.4921711072e-04
8.2403412110e+02 9.2011735798e-06
8.2772934137e+02 -3.3619676692e-04
8.3142456165e+02 -5.1664161319e-04
8.3511978192e+02 -4.8521617896e-04
8.3881500220e+02 -2.2459771522e-04
8.4251022247e+02 2.4972082975e-04
8.4620544274e+02 8.9150216510e-04
8.4990066302e+02 1.6334733451e-03
8.5359588329e+02 2.3997304222e-03
8.5729110357e+02 3.1165119546e-03
8.6098632384e+02 3.7138379619e-03
8.6468154411e+02 4.1191792104e-03
8.6837676439e+02 4.2607829296e-03
8.7207198466e+02 4.0997634633e-03
8.7576720494e+02 3.6699573819e-03
8.7946242521e+02 3.0800711902e-03
8.8315764548e+02 2.4760742200e-03
8.8685286576e+02 1.9954195857e-03
8.9054808603e+02 1.7318022854e-03
8.9424330631e+02 1.7177560214e-03
8.9793852658e+02 1.9268993850e-03
9.0163374685e+02 2.2846100321e-03
9.0532896713e+02 2.6804464931e-03
9.0902418740e+02 2.9946342161e-03
9.1271940768e+02 3.1326720818e-03
9.1641462795e+02 3.0493922806e-03
9.2010984822e+02 2.7505875829e-03
9.2380506850e+02 2.2761895826e-03
9.2750028877e+02 1.6826534196e-03
9.3119550905e+02 1.0397621499e-03
9.3489072932e+02 4.2811128024e-04
9.3858594959e+02 -7.4045287054e-05
9.4228116987e+02 -4.0280650463e-04
9.4597639014e+02 -5.1700857025e-04
9.4967161042e+02 -4.0280650463e-04
9.5336683069e+02 -7.4045287054e-05
9.5706205096e+02 4.2811128024e-04
9.6075727124e+02 1.0397621499e-03
9.6445249151e+02 1.6826534196e-03
9.6814771179e+02 2.2761895826e-03
9.7184293206e+02 2.7505875829e-03
9.7553815233e+02 3.0493922806e-03
9.7923337261e+02 3.1326720818e-03
9.8292859288e+02 2.9946342161e-03
9.8662381316e+02 2.6804464931e-03
9.9031903343e+02 2.2846100321e-03
9.9401425370e+02 1.9268993850e-03
9.9770947398e+02 1.7177560214e-03
1.0014046943e+03 1.7318022854e-03
1.0050999145e+03 1.9954195857e-03
1.0087951348e+03 2.4760742200e-03
1.0124903551e+03 3.0800711902e-03
1.0161855753e+03 3.6699573819e-03
1.0198807956e+03 4.0997634633e-03
1.0235760159e+03 4.2607829296e-03
1.0272712362e+03 4.1191792104e-03
1.0309664564e+03 3.7138379619e-03
1.0346616767e+03 3.1165119546e-03
1.0383568970e+03 2.3997304222e-03
1.0420521173e+03 1.6334733451e-03
1.0457473375e+03 8.9150216510e-04
1.0494425578e+03 2.4972082975e-04
1.0531377781e+03 -2.2459771522e-04
1.0568329984e+03 -4.8521617896e-04
1.0605282186e+03 -5.1664161319e-04
1.0642234389e+03 -3.3619676692e-04
1.0679186592e+03 9.2011735798e-06
1.0716138795e+03 4.4921711072e-04
1.0753090997e+03 9.0684994166e-04
1.0790043200e+03 1.3179761758e-03
1.0826995403e+03 1.6399873290e-03
1.0863947606e+03 1.8516367332e-03
1.0900899808e+03 1.9471766842e-03
1.0937852011e+03 1.9240052825e-03
1.0974804214e+03 1.7695579428e-03
1.1011756416e+03 1.4614227222e-03
1.1048708619e+03 9.8250013183e-04
1.1085660822e+03 3.3383719990e-04
1.1122613025e+03 -4.6268207868e-04
1.1159565227e+03 -1.3661278135e-03
1.1196517430e+03 -2.3265929825e-03
1.1233469633e+03 -3.3059524620e-03
1.1270421836e+03 -4.2805073757e-03
1.1307374038e+03 -5.2209510512e-03
1.1344326241e+03 -6.0842855537e-03
1.1381278444e+03 -6.8290017346e-03
1.1418230647e+03 -7.4340634753e-03
1.1455182849e+03 -7.9025228522e-03
1.1492135052e+03 -8.2467200336e-03
1.1529087255e+03 -8.4709978132e-03
1.1566039458e+03 -8.5692829949e-03
1.1602991660e+03 -8.5333978890e-03
1.1639943863e+03 -8.3639446672e-03
1.1676896066e+03 -8.0805394034e-03
1.1713848269e+03 -7.7230648807e-03
1.1750800471e+03 -7.3385637581e-03
1.1787752674e+03 -6.9607150591e-03
1.1824704877e+03 -6.6004083343e-03
1.1861657080e+03 -6.2534490916e-03
1.1898609282e+03 -5.9084386912e-03
1.1935561485e+03 -5.5505947687e-03
1.1972513688e+03 -5.1744330223e-03
1.2009465890e+03 -4.8015172232e-03
1.2046418093e+03 -4.4835698548e-03
1.2083370296e+03 -4.2837676638e-03
1.2120322499e+03 -4.2463458782e-03
1.2157274701e+03 -4.3772405816e-03
1.2194226904e+03 -4.6510761829e-03
1.2231179107e+03 -5.0301738715e-03
1.2268131310e+03 -5.4706985402e-03
1.2305083512e+03 -5.9169888614e-03
1.2342035715e+03 -6.3086523168e-03
1.2378987918e+03 -6.6075697320e-03
1.2415940121e+03 -6.8182215107e-03
1.2452892323e+03 -6.9724979523e-03
1.2489844526e+03 -7.0988184019e-03
1.2526796729e+03 -7.2070490035e-03
1.2563748932e+03 -7.2828274784e-03
1.2600701134e+03 -7.2902709789e-03
1.2637653337e+03 -7.1932171488e-03
1.2674605540e+03 -6.9832218018e-03
1.2711557743e+03 -6.6874375163e-03
1.2748509945e+03 -6.3507060879e-03
1.2785462148e+03 -6.0095149474e-03
1.2822414351e+03 -5.6780764740e-03
1.2859366553e+03 -5.3562140922e-03
1.2896318756e+03 -5.0447267314e-03
1.2933270959e+03 -4.7493076548e-03
1.2970223162e+03 -4.4750217414e-03
1.3007175364e+03 -4.2205122822e-03
1.3044127567e+03 -3.9680600245e-03
1.3081079770e+03 -3.6739422522e-03
1.3118031973e+03 -3.2808539704e-03
1.3154984175e+03 -2.7529599800e-03
1.3191936378e+03 -2.1063209346e-03
1.3228888581e+03 -1.4071722453e-03
1.3265840784e+03 -7.3871402504e-04
1.3302792986e+03 -1.7033215534e-04
1.3339745189e+03 2.4585016028e-04
1.3376697392e+03 4.7087837523e-04
1.3413649595e+03 4.9072868144e-04
1.3450601797e+03 3.2556232320e-04
1.3487554000e+03 2.3149857978e-05
1.3524506203e+03 -3.5196813450e-04
1.3561458406e+03 -7.3327874834e-04
1.3598410608e+03 -1.0718176560e-03
1.3635362811e+03 -1.3480011209e-03
1.3672315014e+03 -1.5692713860e-03
1.3709267217e+03 -1.7588996661e-03
1.3746219419e+03 -1.9413851029e-03
1.3783171622e+03 -2.1294490275e-03
1.3820123825e+03 -2.3209848129e-03
1.3857076027e+03 -2.5018387310e-03
1.3894028230e+03 -2.6483114658e-03
1.3930980433e+03 -2.7346782138e-03
1.3967932636e+03 -2.7446113112e-03
1.4004884838e+03 -2.6762069826e-03
1.4041837041e+03 -2.5418770681e-03
1.4078789244e+03 -2.3659712565e-03
1.4115741447e+03 -2.1759734230e-03
1.4152693649e+03 -1.9924958073e-03
1.4189645852e+03 -1.8301480452e-03
1.4226598055e+03 -1.7070436464e-03
1.4263550258e+03 -1.6523349789e-03
1.4300502460e+03 -1.7089655152e-03
1.4337454663e+03 -1.9239054469e-03
1.4374406866e+03 -2.3218248306e-03
1.4411359069e+03 -2.8850024939e-03
1.4448311271e+03 -3.5586004809e-03
1.4485263474e+03 -4.2695370863e-03
1.4522215677e+03 -4.9406199635e-03
1.4559167880e+03 -5.4990078557e-03
1.4596120082e+03 -5.8891675588e-03
1.4633072285e+03 -6.0964751379e-03
1.4670024488e+03 -6.1658987057e-03
1.4706976690e+03 -6.1901676515e-03
1.4743928893e+03 -6.2726849514e-03
1.4780881096e+03 -6.4944355710e-03
1.4817833299e+03 -6.8963194839e-03
1.4854785501e+03 -7.4735429566e-03
1.4891737704e+03 -8.1852815047e-03
1.4928689907e+03 -8.9798676335e-03
1.4965642110e+03 -9.8149137025e-03
1.5002594312e+03 -1.0654768371e-02
1.5039546515e+03 -1.1457438599e-02
1.5076498718e+03 -1.2168905456e-02
1.5113450921e+03 -1.2729876117e-02
1.5150403123e+03 -1.3091641561e-02
1.5187355326e+03 -1.3228764953e-02
1.5224307529e+03 -1.3139507533e-02
1.5261259732e+03 -1.2839175955e-02
1.5298211934e+03 -1.2356258437e-02
1.5335164137e+03 -1.1732423363e-02
1.5372116340e+03 -1.1025370764e-02
1.5409068543e+03 -1.0303651356e-02
1.5446020745e+03 -9.6298776458e-03
1.5482972948e+03 -9.0464965760e-03
1.5519925151e+03 -8.5713590379e-03
1.5556877354e+03 -8.2055133124e-03
1.5593829556e+03 -7.9461573042e-03
1.5630781759e+03 -7.7938793593e-03
1.5667733962e+03 -7.7506483279e-03
1.5704686164e+03 -7.8122749906e-03
1.5741638367e+03 -7.9615683775e-03
1.5778590570e+03 -8.1700406167e-03
1.5815542773e+03 -8.4080479550e-03
1.5852494975e+03 -8.6560539664e-03
1.5889447178e+03 -8.9141988182e-03
1.5926399381e+03 -9.2022696786e-03
1.5963351584e+03 -9.5499385417e-03
1.6000303786e+03 -9.9882877789e-03
1.6037255989e+03 -1.0540891587e-02
1.6074208192e+03 -1.1214795299e-02
1.6111160395e+03 -1.1999748755e-02
1.6148112597e+03 -1.2870317253e-02
1.6185064800e+03 -1.3786270004e-02
1.6222017003e+03 -1.4700990533e-02
1.6258969206e+03 -1.5571573426e-02
1.6295921408e+03 -1.6359153348e-02
1.6332873611e+03 -1.7027969839e-02
1.6369825814e+03 -1.7548812167e-02
1.6406778017e+03 -1.7904060194e-02
1.6443730219e+03 -1.8096938249e-02
1.6480682422e+03 -1.8162448372e-02
1.6517634625e+03 -1.8165745021e-02
1.6554586827e+03 -1.8180156365e-02
1.6591539030e+03 -1.8257134283e-02
1.6628491233e+03 -1.8413113423e-02
1.6665443436e+03 -1.8640946287e-02
1.6702395638e+03 -1.8926742325e-02
1.6739347841e+03 -1.9259942707e-02
1.6776300044e+03 -1.9638008188e-02
1.6813252247e+03 -2.0063770221e-02
1.6850204449e+03 -2.0538367452e-02
1.6887156652e+03 -2.1058314605e-02
1.6924108855e+03 -2.1623941118e-02
1.6961061058e+03 -2.2248024297e-02
1.6998013260e+03 -2.2948555458e-02
1.7034965463e+03 -2.3730631194e-02
1.7071917666e+03 -2.4572914154e-02
1.7108869869e+03 -2.5429583127e-02
1.7145822071e+03 -2.6247899148e-02
1.7182774274e+03 -2.6985377140e-02
1.7219726477e+03 -2.7614504784e-02
1.7256678680e+03 -2.8117393665e-02
1.7293630882e+03 -2.8482372302e-02
1.7330583085e+03 -2.8705146448e-02
1.7367535288e+03 -2.8785546917e-02
1.7404487491e+03 -2.8725416563e-02
1.7441439693e+03 -2.8535870765e-02
1.7478391896e+03 -2.8240017864e-02
1.7515344099e+03 -2.7859847604e-02
1.7552296301e+03 -2.7405485962e-02
1.7589248504e+03 -2.6887234415e-02
1.7626200707e+03 -2.6336395374e-02
1.7663152910e+03 -2.5802304001e-02
1.7700105112e+03 -2.5329623386e-02
1.7737057315e+03 -2.4943788082e-02
1.7774009518e+03 -2.4652280485e-02
1.7810961721e+03 -2.4446194564e-02
1.7847913923e+03 -2.4289504090e-02
1.7884866126e+03 -2.4105873565e-02
1.7921818329e+03 -2.3779053667e-02
1.7958770532e+03 -2.3166601028e-02
1.7995722734e+03 -2.2113303398e-02
1.8032674937e+03 -2.0456287739e-02
1.8069627140e+03 -1.8019552261e-02
1.8106579343e+03 -1.4601214967e-02
1.8143531545e+03 -9.9586084140e-03
1.8180483748e+03 -3.7856033561e-03
1.8217435951e+03 4.3022090255e-03
1.8254388154e+03 1.4752827560e-02
1.8291340356e+03 2.8063010923e-02
1.8328292559e+03 4.4793054697e-02
1.8365244762e+03 6.5588542017e-02
1.8402196964e+03 9.1190855423e-02
1.8439149167e+03 1.2243068034e-01
1.8476101370e+03 1.6019009282e-01
1.8513053573e+03 2.0533908775e-01
1.8550005775e+03 2.5866148049e-01
1.8586957978e+03 3.2077884552e-01
1.8623910181e+03 3.9204334623e-01
1.8660862384e+03 4.7235235554e-01
1.8697814586e+03 5.6083941755e-01
1.8734766789e+03 6.5544531512e-01
1.8771718992e+03 7.5232275229e-01
1.8808671195e+03 8.4517043933e-01
1.8845623397e+03 9.2486765052e-01
1.8882575600e+03 9.8005245271e-01
