# Two-point auto-correlation R_11 (Cartesian) — case DNS_re250_mr04_11 (MR04), y^+ = 15
# Definition: R_{ij}(Δz; y) = < u_i''(x,y,z) u_j''(x,y,z+Δz) > / < u_i''(x,y,z)^2 >
# Columns: delta_z_plus    R
0.0000000000e+00 1.0000000000e+00
3.6272469754e+00 9.6872845842e-01
7.2544939508e+00 8.8489086851e-01
1.0881740926e+01 7.6975026364e-01
1.4508987902e+01 6.4268192473e-01
1.8136234877e+01 5.1668708581e-01
2.1763481852e+01 3.9942493805e-01
2.5390728828e+01 2.9491880022e-01
2.9017975803e+01 2.0487310402e-01
3.2645222779e+01 1.2951215550e-01
3.6272469754e+01 6.8109978898e-02
3.9899716729e+01 1.9379971523e-02
4.3526963705e+01 -1.8232829550e-02
4.7154210680e+01 -4.6341918369e-02
5.0781457656e+01 -6.6498073179e-02
5.4408704631e+01 -8.0137290354e-02
5.8035951606e+01 -8.8547678807e-02
6.1663198582e+01 -9.2863534472e-02
6.5290445557e+01 -9.4091414052e-02
6.8917692533e+01 -9.3116319310e-02
7.2544939508e+01 -9.0679468091e-02
7.6172186483e+01 -8.7354037485e-02
7.9799433459e+01 -8.3542185890e-02
8.3426680434e+01 -7.9520859285e-02
8.7053927409e+01 -7.5496367897e-02
9.0681174385e+01 -7.1606214561e-02
9.4308421360e+01 -6.7910456838e-02
9.7935668336e+01 -6.4415223941e-02
1.0156291531e+02 -6.1098288087e-02
1.0519016229e+02 -5.7924268813e-02
1.0881740926e+02 -5.4853868273e-02
1.1244465624e+02 -5.1852959871e-02
1.1607190321e+02 -4.8919260242e-02
1.1969915019e+02 -4.6101188610e-02
1.2332639716e+02 -4.3476550670e-02
1.2695364414e+02 -4.1134744955e-02
1.3058089111e+02 -3.9173632227e-02
1.3420813809e+02 -3.7664182454e-02
1.3783538507e+02 -3.6607983009e-02
1.4146263204e+02 -3.5950623720e-02
1.4508987902e+02 -3.5620439037e-02
1.4871712599e+02 -3.5551366633e-02
1.5234437297e+02 -3.5694707073e-02
1.5597161994e+02 -3.5994325579e-02
1.5959886692e+02 -3.6356941983e-02
1.6322611389e+02 -3.6692001919e-02
1.6685336087e+02 -3.6965590193e-02
1.7048060784e+02 -3.7170053200e-02
1.7410785482e+02 -3.7251045568e-02
1.7773510179e+02 -3.7097809845e-02
1.8136234877e+02 -3.6613257634e-02
1.8498959575e+02 -3.5807040631e-02
1.8861684272e+02 -3.4828511687e-02
1.9224408970e+02 -3.3889491000e-02
1.9587133667e+02 -3.3145721690e-02
1.9949858365e+02 -3.2648667853e-02
2.0312583062e+02 -3.2372418520e-02
2.0675307760e+02 -3.2247303813e-02
2.1038032457e+02 -3.2171740951e-02
2.1400757155e+02 -3.2025703217e-02
2.1763481852e+02 -3.1689209090e-02
2.2126206550e+02 -3.1054510834e-02
2.2488931247e+02 -3.0050175231e-02
2.2851655945e+02 -2.8674866683e-02
2.3214380643e+02 -2.6999551416e-02
2.3577105340e+02 -2.5135398597e-02
2.3939830038e+02 -2.3186566527e-02
2.4302554735e+02 -2.1209651894e-02
2.4665279433e+02 -1.9226419244e-02
2.5028004130e+02 -1.7279122390e-02
2.5390728828e+02 -1.5451259891e-02
2.5753453525e+02 -1.3835258543e-02
2.6116178223e+02 -1.2502789726e-02
2.6478902920e+02 -1.1511517681e-02
2.6841627618e+02 -1.0910847853e-02
2.7204352315e+02 -1.0713164445e-02
2.7567077013e+02 -1.0874953614e-02
2.7929801711e+02 -1.1323478933e-02
2.8292526408e+02 -1.1993513619e-02
2.8655251106e+02 -1.2839917015e-02
2.9017975803e+02 -1.3813239120e-02
2.9380700501e+02 -1.4824347350e-02
2.9743425198e+02 -1.5740012023e-02
3.0106149896e+02 -1.6419895895e-02
3.0468874593e+02 -1.6772299925e-02
3.0831599291e+02 -1.6773258331e-02
3.1194323988e+02 -1.6431897328e-02
3.1557048686e+02 -1.5758205962e-02
3.1919773383e+02 -1.4763417420e-02
3.2282498081e+02 -1.3465992722e-02
3.2645222779e+02 -1.1897284094e-02
3.3007947476e+02 -1.0124495946e-02
3.3370672174e+02 -8.2639052560e-03
3.3733396871e+02 -6.4468393569e-03
3.4096121569e+02 -4.7683018387e-03
3.4458846266e+02 -3.2778095931e-03
3.4821570964e+02 -2.0221018717e-03
3.5184295661e+02 -1.0744328885e-03
3.5547020359e+02 -5.0083477999e-04
3.5909745056e+02 -3.1955527672e-04
3.6272469754e+02 -5.0973561630e-04
3.6635194451e+02 -1.0368128079e-03
3.6997919149e+02 -1.8624019500e-03
3.7360643847e+02 -2.9277742696e-03
3.7723368544e+02 -4.1179544755e-03
3.8086093242e+02 -5.2525548016e-03
3.8448817939e+02 -6.1327768042e-03
3.8811542637e+02 -6.6122300008e-03
3.9174267334e+02 -6.6320829447e-03
3.9536992032e+02 -6.2020216854e-03
3.9899716729e+02 -5.3622466811e-03
4.0262441427e+02 -4.1718979391e-03
4.0625166124e+02 -2.7174286123e-03
4.0987890822e+02 -1.1180868886e-03
4.1350615520e+02 4.7660030057e-04
4.1713340217e+02 1.9097935365e-03
4.2076064915e+02 3.0523581327e-03
4.2438789612e+02 3.8346149953e-03
4.2801514310e+02 4.2735691786e-03
4.3164239007e+02 4.4622529978e-03
4.3526963705e+02 4.5135649004e-03
4.3889688402e+02 4.5032577535e-03
4.4252413100e+02 4.4547000052e-03
4.4615137797e+02 4.3734736787e-03
4.4977862495e+02 4.2849384221e-03
4.5340587192e+02 4.2204819438e-03
4.5703311890e+02 4.1835638234e-03
4.6066036588e+02 4.1486952177e-03
4.6428761285e+02 4.0813963803e-03
4.6791485983e+02 3.9539792965e-03
4.7154210680e+02 3.7595315436e-03
4.7516935378e+02 3.5253390227e-03
4.7879660075e+02 3.3184966905e-03
4.8242384773e+02 3.2342867349e-03
4.8605109470e+02 3.3625221539e-03
4.8967834168e+02 3.7387975087e-03
4.9330558865e+02 4.3178127427e-03
4.9693283563e+02 5.0015699485e-03
5.0056008260e+02 5.6896822107e-03
5.0418732958e+02 6.3134357834e-03
5.0781457656e+02 6.8494505881e-03
5.1144182353e+02 7.3000288148e-03
5.1506907051e+02 7.6536614714e-03
5.1869631748e+02 7.8723055135e-03
5.2232356446e+02 7.9153064475e-03
5.2595081143e+02 7.7735464533e-03
5.2957805841e+02 7.4840724519e-03
5.3320530538e+02 7.1083802837e-03
5.3683255236e+02 6.7019689447e-03
5.4045979933e+02 6.3120320532e-03
5.4408704631e+02 5.9825480540e-03
5.4771429328e+02 5.7444297280e-03
5.5134154026e+02 5.6033040198e-03
5.5496878724e+02 5.5341842877e-03
5.5859603421e+02 5.4923021053e-03
5.6222328119e+02 5.4426643899e-03
5.6585052816e+02 5.3819137713e-03
5.6947777514e+02 5.3364253817e-03
5.7310502211e+02 5.3411877777e-03
5.7673226909e+02 5.3963430483e-03
5.8035951606e+02 5.4319224700e-03
5.8398676304e+02 5.3362095244e-03
5.8761401001e+02 5.0228064426e-03
5.9124125699e+02 4.4634384111e-03
5.9486850396e+02 3.6797440790e-03
5.9849575094e+02 2.7293750140e-03
6.0212299792e+02 1.6846071030e-03
6.0575024489e+02 6.0702095071e-04
6.0937749187e+02 -4.5735776101e-04
6.1300473884e+02 -1.4852858550e-03
6.1663198582e+02 -2.5042793790e-03
6.2025923279e+02 -3.5955367381e-03
6.2388647977e+02 -4.8380221128e-03
6.2751372674e+02 -6.2450217633e-03
6.3114097372e+02 -7.7468326616e-03
6.3476822069e+02 -9.2075850049e-03
6.3839546767e+02 -1.0463810123e-02
6.4202271465e+02 -1.1372532915e-02
6.4564996162e+02 -1.1843114252e-02
6.4927720860e+02 -1.1850209490e-02
6.5290445557e+02 -1.1423339914e-02
6.5653170255e+02 -1.0614026411e-02
6.6015894952e+02 -9.4734026245e-03
6.6378619650e+02 -8.0491570176e-03
6.6741344347e+02 -6.3966717829e-03
6.7104069045e+02 -4.6183285553e-03
6.7466793742e+02 -2.8746450359e-03
6.7829518440e+02 -1.3185319070e-03
6.8192243137e+02 -4.4467315567e-05
6.8554967835e+02 8.8626266964e-04
6.8917692533e+02 1.4274966303e-03
6.9280417230e+02 1.5770917043e-03
6.9643141928e+02 1.3774950410e-03
7.0005866625e+02 8.8689378411e-04
7.0368591323e+02 1.9059188975e-04
7.0731316020e+02 -5.7769133053e-04
7.1094040718e+02 -1.2815120181e-03
7.1456765415e+02 -1.8555643440e-03
7.1819490113e+02 -2.2983781544e-03
7.2182214810e+02 -2.5905694761e-03
7.2544939508e+02 -2.6605209481e-03
7.2907664205e+02 -2.4368744184e-03
7.3270388903e+02 -1.8991924952e-03
7.3633113601e+02 -1.0715238715e-03
7.3995838298e+02 3.1789176896e-06
7.4358562996e+02 1.2687116997e-03
7.4721287693e+02 2.6366716449e-03
7.5084012391e+02 3.9752168235e-03
7.5446737088e+02 5.1445128493e-03
7.5809461786e+02 6.0356766048e-03
7.6172186483e+02 6.5734069123e-03
7.6534911181e+02 6.7243884967e-03
7.6897635878e+02 6.5268084042e-03
7.7260360576e+02 6.0959980701e-03
7.7623085273e+02 5.5771498339e-03
7.7985809971e+02 5.0752009955e-03
7.8348534669e+02 4.6225644576e-03
7.8711259366e+02 4.1969720550e-03
7.9073984064e+02 3.7636806812e-03
7.9436708761e+02 3.3108699073e-03
7.9799433459e+02 2.8455545262e-03
8.0162158156e+02 2.3649197584e-03
8.0524882854e+02 1.8548880634e-03
8.0887607551e+02 1.3234064302e-03
8.1250332249e+02 8.1939165094e-04
8.1613056946e+02 4.0374238497e-04
8.1975781644e+02 1.1406912434e-04
8.2338506341e+02 -3.8993990043e-05
8.2701231039e+02 -6.8745182488e-05
8.3063955737e+02 -1.8692584657e-05
8.3426680434e+02 4.9822354980e-05
8.3789405132e+02 9.0382936421e-05
8.4152129829e+02 8.3557374253e-05
8.4514854527e+02 2.4447899677e-05
8.4877579224e+02 -8.6114698436e-05
8.5240303922e+02 -2.4231113949e-04
8.5603028619e+02 -4.3102965349e-04
8.5965753317e+02 -6.1941546997e-04
8.6328478014e+02 -7.4982132434e-04
8.6691202712e+02 -7.7322554143e-04
8.7053927409e+02 -6.9326287525e-04
8.7416652107e+02 -5.7537550287e-04
8.7779376805e+02 -5.2356905349e-04
8.8142101502e+02 -6.3937287135e-04
8.8504826200e+02 -9.7018020091e-04
8.8867550897e+02 -1.4798429213e-03
8.9230275595e+02 -2.0694227255e-03
8.9593000292e+02 -2.6224210687e-03
8.9955724990e+02 -3.0361471120e-03
9.0318449687e+02 -3.2381411597e-03
9.0681174385e+02 -3.1984043671e-03
9.1043899082e+02 -2.9427509504e-03
9.1406623780e+02 -2.5598550137e-03
9.1769348478e+02 -2.1684406376e-03
9.2132073175e+02 -1.8559405587e-03
9.2494797873e+02 -1.6583923250e-03
9.2857522570e+02 -1.5902144247e-03
9.3220247268e+02 -1.6583923250e-03
9.3582971965e+02 -1.8559405587e-03
9.3945696663e+02 -2.1684406376e-03
9.4308421360e+02 -2.5598550137e-03
9.4671146058e+02 -2.9427509504e-03
9.5033870755e+02 -3.1984043671e-03
9.5396595453e+02 -3.2381411597e-03
9.5759320150e+02 -3.0361471120e-03
9.6122044848e+02 -2.6224210687e-03
9.6484769546e+02 -2.0694227255e-03
9.6847494243e+02 -1.4798429213e-03
9.7210218941e+02 -9.7018020091e-04
9.7572943638e+02 -6.3937287135e-04
9.7935668336e+02 -5.2356905349e-04
9.8298393033e+02 -5.7537550287e-04
9.8661117731e+02 -6.9326287525e-04
9.9023842428e+02 -7.7322554143e-04
9.9386567126e+02 -7.4982132434e-04
9.9749291823e+02 -6.1941546997e-04
1.0011201652e+03 -4.3102965349e-04
1.0047474122e+03 -2.4231113949e-04
1.0083746592e+03 -8.6114698436e-05
1.0120019061e+03 2.4447899677e-05
1.0156291531e+03 8.3557374253e-05
1.0192564001e+03 9.0382936421e-05
1.0228836471e+03 4.9822354980e-05
1.0265108940e+03 -1.8692584657e-05
1.0301381410e+03 -6.8745182488e-05
1.0337653880e+03 -3.8993990043e-05
1.0373926350e+03 1.1406912434e-04
1.0410198819e+03 4.0374238497e-04
1.0446471289e+03 8.1939165094e-04
1.0482743759e+03 1.3234064302e-03
1.0519016229e+03 1.8548880634e-03
1.0555288698e+03 2.3649197584e-03
1.0591561168e+03 2.8455545262e-03
1.0627833638e+03 3.3108699073e-03
1.0664106108e+03 3.7636806812e-03
1.0700378577e+03 4.1969720550e-03
1.0736651047e+03 4.6225644576e-03
1.0772923517e+03 5.0752009955e-03
1.0809195987e+03 5.5771498339e-03
1.0845468456e+03 6.0959980701e-03
1.0881740926e+03 6.5268084042e-03
1.0918013396e+03 6.7243884967e-03
1.0954285866e+03 6.5734069123e-03
1.0990558335e+03 6.0356766048e-03
1.1026830805e+03 5.1445128493e-03
1.1063103275e+03 3.9752168235e-03
1.1099375745e+03 2.6366716449e-03
1.1135648214e+03 1.2687116997e-03
1.1171920684e+03 3.1789176896e-06
1.1208193154e+03 -1.0715238715e-03
1.1244465624e+03 -1.8991924952e-03
1.1280738093e+03 -2.4368744184e-03
1.1317010563e+03 -2.6605209481e-03
1.1353283033e+03 -2.5905694761e-03
1.1389555503e+03 -2.2983781544e-03
1.1425827972e+03 -1.8555643440e-03
1.1462100442e+03 -1.2815120181e-03
1.1498372912e+03 -5.7769133053e-04
1.1534645382e+03 1.9059188975e-04
1.1570917852e+03 8.8689378411e-04
1.1607190321e+03 1.3774950410e-03
1.1643462791e+03 1.5770917043e-03
1.1679735261e+03 1.4274966303e-03
1.1716007731e+03 8.8626266964e-04
1.1752280200e+03 -4.4467315567e-05
1.1788552670e+03 -1.3185319070e-03
1.1824825140e+03 -2.8746450359e-03
1.1861097610e+03 -4.6183285553e-03
1.1897370079e+03 -6.3966717829e-03
1.1933642549e+03 -8.0491570176e-03
1.1969915019e+03 -9.4734026245e-03
1.2006187489e+03 -1.0614026411e-02
1.2042459958e+03 -1.1423339914e-02
1.2078732428e+03 -1.1850209490e-02
1.2115004898e+03 -1.1843114252e-02
1.2151277368e+03 -1.1372532915e-02
1.2187549837e+03 -1.0463810123e-02
1.2223822307e+03 -9.2075850049e-03
1.2260094777e+03 -7.7468326616e-03
1.2296367247e+03 -6.2450217633e-03
1.2332639716e+03 -4.8380221128e-03
1.2368912186e+03 -3.5955367381e-03
1.2405184656e+03 -2.5042793790e-03
1.2441457126e+03 -1.4852858550e-03
1.2477729595e+03 -4.5735776101e-04
1.2514002065e+03 6.0702095071e-04
1.2550274535e+03 1.6846071030e-03
1.2586547005e+03 2.7293750140e-03
1.2622819474e+03 3.6797440790e-03
1.2659091944e+03 4.4634384111e-03
1.2695364414e+03 5.0228064426e-03
1.2731636884e+03 5.3362095244e-03
1.2767909353e+03 5.4319224700e-03
1.2804181823e+03 5.3963430483e-03
1.2840454293e+03 5.3411877777e-03
1.2876726763e+03 5.3364253817e-03
1.2912999232e+03 5.3819137713e-03
1.2949271702e+03 5.4426643899e-03
1.2985544172e+03 5.4923021053e-03
1.3021816642e+03 5.5341842877e-03
1.3058089111e+03 5.6033040198e-03
1.3094361581e+03 5.7444297280e-03
1.3130634051e+03 5.9825480540e-03
1.3166906521e+03 6.3120320532e-03
1.3203178990e+03 6.7019689447e-03
1.3239451460e+03 7.1083802837e-03
1.3275723930e+03 7.4840724519e-03
1.3311996400e+03 7.7735464533e-03
1.3348268869e+03 7.9153064475e-03
1.3384541339e+03 7.8723055135e-03
1.3420813809e+03 7.6536614714e-03
1.3457086279e+03 7.3000288148e-03
1.3493358748e+03 6.8494505881e-03
1.3529631218e+03 6.3134357834e-03
1.3565903688e+03 5.6896822107e-03
1.3602176158e+03 5.0015699485e-03
1.3638448627e+03 4.3178127427e-03
1.3674721097e+03 3.7387975087e-03
1.3710993567e+03 3.3625221539e-03
1.3747266037e+03 3.2342867349e-03
1.3783538507e+03 3.3184966905e-03
1.3819810976e+03 3.5253390227e-03
1.3856083446e+03 3.7595315436e-03
1.3892355916e+03 3.9539792965e-03
1.3928628386e+03 4.0813963803e-03
1.3964900855e+03 4.1486952177e-03
1.4001173325e+03 4.1835638234e-03
1.4037445795e+03 4.2204819438e-03
1.4073718265e+03 4.2849384221e-03
1.4109990734e+03 4.3734736787e-03
1.4146263204e+03 4.4547000052e-03
1.4182535674e+03 4.5032577535e-03
1.4218808144e+03 4.5135649004e-03
1.4255080613e+03 4.4622529978e-03
1.4291353083e+03 4.2735691786e-03
1.4327625553e+03 3.8346149953e-03
1.4363898023e+03 3.0523581327e-03
1.4400170492e+03 1.9097935365e-03
1.4436442962e+03 4.7660030057e-04
1.4472715432e+03 -1.1180868886e-03
1.4508987902e+03 -2.7174286123e-03
1.4545260371e+03 -4.1718979391e-03
1.4581532841e+03 -5.3622466811e-03
1.4617805311e+03 -6.2020216854e-03
1.4654077781e+03 -6.6320829447e-03
1.4690350250e+03 -6.6122300008e-03
1.4726622720e+03 -6.1327768042e-03
1.4762895190e+03 -5.2525548016e-03
1.4799167660e+03 -4.1179544755e-03
1.4835440129e+03 -2.9277742696e-03
1.4871712599e+03 -1.8624019500e-03
1.4907985069e+03 -1.0368128079e-03
1.4944257539e+03 -5.0973561630e-04
1.4980530008e+03 -3.1955527672e-04
1.5016802478e+03 -5.0083477999e-04
1.5053074948e+03 -1.0744328885e-03
1.5089347418e+03 -2.0221018717e-03
1.5125619887e+03 -3.2778095931e-03
1.5161892357e+03 -4.7683018387e-03
1.5198164827e+03 -6.4468393569e-03
1.5234437297e+03 -8.2639052560e-03
1.5270709766e+03 -1.0124495946e-02
1.5306982236e+03 -1.1897284094e-02
1.5343254706e+03 -1.3465992722e-02
1.5379527176e+03 -1.4763417420e-02
1.5415799645e+03 -1.5758205962e-02
1.5452072115e+03 -1.6431897328e-02
1.5488344585e+03 -1.6773258331e-02
1.5524617055e+03 -1.6772299925e-02
1.5560889524e+03 -1.6419895895e-02
1.5597161994e+03 -1.5740012023e-02
1.5633434464e+03 -1.4824347350e-02
1.5669706934e+03 -1.3813239120e-02
1.5705979403e+03 -1.2839917015e-02
1.5742251873e+03 -1.1993513619e-02
1.5778524343e+03 -1.1323478933e-02
1.5814796813e+03 -1.0874953614e-02
1.5851069282e+03 -1.0713164445e-02
1.5887341752e+03 -1.0910847853e-02
1.5923614222e+03 -1.1511517681e-02
1.5959886692e+03 -1.2502789726e-02
1.5996159161e+03 -1.3835258543e-02
1.6032431631e+03 -1.5451259891e-02
1.6068704101e+03 -1.7279122390e-02
1.6104976571e+03 -1.9226419244e-02
1.6141249041e+03 -2.1209651894e-02
1.6177521510e+03 -2.3186566527e-02
1.6213793980e+03 -2.5135398597e-02
1.6250066450e+03 -2.6999551416e-02
1.6286338920e+03 -2.8674866683e-02
1.6322611389e+03 -3.0050175231e-02
1.6358883859e+03 -3.1054510834e-02
1.6395156329e+03 -3.1689209090e-02
1.6431428799e+03 -3.2025703217e-02
1.6467701268e+03 -3.2171740951e-02
1.6503973738e+03 -3.2247303813e-02
1.6540246208e+03 -3.2372418520e-02
1.6576518678e+03 -3.2648667853e-02
1.6612791147e+03 -3.3145721690e-02
1.6649063617e+03 -3.3889491000e-02
1.6685336087e+03 -3.4828511687e-02
1.6721608557e+03 -3.5807040631e-02
1.6757881026e+03 -3.6613257634e-02
1.6794153496e+03 -3.7097809845e-02
1.6830425966e+03 -3.7251045568e-02
1.6866698436e+03 -3.7170053200e-02
1.6902970905e+03 -3.6965590193e-02
1.6939243375e+03 -3.6692001919e-02
1.6975515845e+03 -3.6356941983e-02
1.7011788315e+03 -3.5994325579e-02
1.7048060784e+03 -3.5694707073e-02
1.7084333254e+03 -3.5551366633e-02
1.7120605724e+03 -3.5620439037e-02
1.7156878194e+03 -3.5950623720e-02
1.7193150663e+03 -3.6607983009e-02
1.7229423133e+03 -3.7664182454e-02
1.7265695603e+03 -3.9173632227e-02
1.7301968073e+03 -4.1134744955e-02
1.7338240542e+03 -4.3476550670e-02
1.7374513012e+03 -4.6101188610e-02
1.7410785482e+03 -4.8919260242e-02
1.7447057952e+03 -5.1852959871e-02
1.7483330421e+03 -5.4853868273e-02
1.7519602891e+03 -5.7924268813e-02
1.7555875361e+03 -6.1098288087e-02
1.7592147831e+03 -6.4415223941e-02
1.7628420300e+03 -6.7910456838e-02
1.7664692770e+03 -7.1606214561e-02
1.7700965240e+03 -7.5496367897e-02
1.7737237710e+03 -7.9520859285e-02
1.7773510179e+03 -8.3542185890e-02
1.7809782649e+03 -8.7354037485e-02
1.7846055119e+03 -9.0679468091e-02
1.7882327589e+03 -9.3116319310e-02
1.7918600058e+03 -9.4091414052e-02
1.7954872528e+03 -9.2863534472e-02
1.7991144998e+03 -8.8547678807e-02
1.8027417468e+03 -8.0137290354e-02
1.8063689937e+03 -6.6498073179e-02
1.8099962407e+03 -4.6341918369e-02
1.8136234877e+03 -1.8232829550e-02
1.8172507347e+03 1.9379971523e-02
1.8208779816e+03 6.8109978898e-02
1.8245052286e+03 1.2951215550e-01
1.8281324756e+03 2.0487310402e-01
1.8317597226e+03 2.9491880022e-01
1.8353869696e+03 3.9942493805e-01
1.8390142165e+03 5.1668708581e-01
1.8426414635e+03 6.4268192473e-01
1.8462687105e+03 7.6975026364e-01
1.8498959575e+03 8.8489086851e-01
1.8535232044e+03 9.6872845842e-01
