# Turbulent kinetic energy budget term: Pi (pressure diffusion + dilatation)
# Definition: Pi = -\partial_{x_i}(\overline{p' u_i''}) + \overline{ p' (\partial u_i'' / \partial x_i)}
# Columns: y_plus    Pi^+
3.9100267708e-01 9.3702910554e-03
1.1669246953e+00 1.4126472358e-02
1.9435303622e+00 2.2068228668e-02
2.7210037404e+00 2.0777952679e-02
3.4995481111e+00 1.9797286076e-02
4.2793829765e+00 1.8730850795e-02
5.0607410474e+00 1.6861492872e-02
5.8438654524e+00 1.5298888882e-02
6.6290073199e+00 1.3312075947e-02
7.4164238012e+00 1.1559279739e-02
8.2063765381e+00 9.5996471644e-03
8.9991305383e+00 7.7750100822e-03
9.7949533913e+00 5.9469052924e-03
1.0594114757e+01 4.2116766237e-03
1.1396886058e+01 2.6472601838e-03
1.2203540314e+01 1.1605351828e-03
1.3014352078e+01 -4.5900528123e-05
1.3829597436e+01 -1.1983914658e-03
1.4649554046e+01 -2.0287822474e-03
1.5474501205e+01 -2.8314131539e-03
1.6304719923e+01 -3.3012613242e-03
1.7140493017e+01 -3.7589046535e-03
1.7982105198e+01 -3.8985730535e-03
1.8829843169e+01 -4.0540186621e-03
1.9683995721e+01 -3.9382357632e-03
2.0544853828e+01 -3.8762896900e-03
2.1412710751e+01 -3.6001438478e-03
2.2287862134e+01 -3.4105762842e-03
2.3170606107e+01 -3.0562319559e-03
2.4061243385e+01 -2.8035498176e-03
2.4960077373e+01 -2.4175519525e-03
2.5867414268e+01 -2.1317311538e-03
2.6783563163e+01 -1.7321721891e-03
2.7708836155e+01 -1.4264430197e-03
2.8643548447e+01 -1.0279445696e-03
2.9588018458e+01 -7.2561021567e-04
3.0542567932e+01 -3.5663048526e-04
3.1507522046e+01 -8.4655135308e-05
3.2483209521e+01 2.3912712577e-04
3.3469962736e+01 4.7205121811e-04
3.4468117838e+01 7.4192091026e-04
3.5478014859e+01 9.1913341593e-04
3.6499997830e+01 1.1129758133e-03
3.7534414901e+01 1.2124039175e-03
3.8581618456e+01 1.3207314084e-03
3.9641965236e+01 1.3501377000e-03
4.0715816460e+01 1.3922077687e-03
4.1803537945e+01 1.3648170070e-03
4.2905500235e+01 1.3393560866e-03
4.4022078725e+01 1.2435754962e-03
4.5153653789e+01 1.1481239935e-03
4.6300610910e+01 1.0036750811e-03
4.7463340810e+01 8.7609782307e-04
4.8642239585e+01 7.2050209527e-04
4.9837708839e+01 5.9069002954e-04
5.1050155822e+01 4.4811505906e-04
5.2279993564e+01 3.4289250813e-04
5.3527641025e+01 2.4659434294e-04
5.4793523226e+01 1.9993147107e-04
5.6078071405e+01 1.6430920853e-04
5.7381723156e+01 1.5921775648e-04
5.8704922581e+01 1.4839481519e-04
6.0048120441e+01 1.5346466817e-04
6.1411774312e+01 1.5176526014e-04
6.2796348734e+01 1.7719941640e-04
6.4202315379e+01 2.2487476482e-04
6.5630153203e+01 3.1266927680e-04
6.7080348613e+01 4.0285906245e-04
6.8553395635e+01 4.8861936433e-04
7.0049796075e+01 5.4622068308e-04
7.1570059699e+01 5.9226244614e-04
7.3114704399e+01 6.2180002550e-04
7.4684256376e+01 6.4225658883e-04
7.6279250313e+01 6.3150854898e-04
7.7900229560e+01 5.9817901278e-04
7.9547746322e+01 5.4439694852e-04
8.1222361842e+01 4.8330132914e-04
8.2924646595e+01 4.0431202862e-04
8.4655180482e+01 3.1051267739e-04
8.6414553026e+01 2.0009263777e-04
8.8203363577e+01 8.4092817521e-05
9.0022221510e+01 -4.5510311237e-05
9.1871746439e+01 -1.8346510559e-04
9.3752568424e+01 -3.2626326482e-04
9.5665328185e+01 -4.6883602914e-04
9.7610677324e+01 -6.1680342190e-04
9.9589278544e+01 -7.5818582997e-04
1.0160180588e+02 -8.8137213374e-04
1.0364894491e+02 -9.7144789740e-04
1.0573139302e+02 -1.0187881005e-03
1.0784985962e+02 -1.0212685123e-03
1.1000506638e+02 -1.0177379449e-03
1.1219774750e+02 -1.0367411081e-03
1.1442864993e+02 -1.0747024966e-03
1.1669853366e+02 -1.1050147941e-03
1.1900817195e+02 -1.1147446479e-03
1.2135835159e+02 -1.1125892523e-03
1.2374987321e+02 -1.1156205400e-03
1.2618355149e+02 -1.1071909858e-03
1.2866021550e+02 -1.0758211117e-03
1.3118070893e+02 -1.0177702622e-03
1.3374589042e+02 -9.4208773919e-04
1.3635663383e+02 -8.7215266123e-04
1.3901382852e+02 -8.1738311042e-04
1.4171837970e+02 -7.8144584412e-04
1.4447120871e+02 -7.4661000599e-04
1.4727325332e+02 -6.9080999535e-04
1.5012546808e+02 -6.1363961586e-04
1.5302882462e+02 -5.1810915856e-04
1.5598431200e+02 -4.1995499919e-04
1.5899293705e+02 -3.2922998829e-04
1.6205572468e+02 -2.4887093386e-04
1.6517371825e+02 -1.8611500817e-04
1.6834797995e+02 -1.6910153006e-04
1.7157959112e+02 -1.9338698901e-04
1.7486965264e+02 -2.1032570123e-04
1.7821928531e+02 -2.0455456648e-04
1.8162963021e+02 -1.9832974780e-04
1.8510184912e+02 -2.0841649873e-04
1.8863712487e+02 -2.3685743007e-04
1.9223666179e+02 -2.5362895740e-04
1.9590168612e+02 -2.4873212974e-04
1.9963344636e+02 -2.4543665048e-04
2.0343321380e+02 -2.3946458423e-04
2.0730228285e+02 -2.3281409698e-04
2.1124197156e+02 -2.3021199781e-04
2.1525362201e+02 -2.3520407777e-04
2.1933860083e+02 -2.4958435675e-04
2.2349829959e+02 -2.7692411527e-04
2.2773413535e+02 -3.2048156320e-04
2.3204755109e+02 -3.8643391736e-04
2.3644001621e+02 -4.2006008271e-04
2.4091302705e+02 -3.9844400711e-04
2.4546810739e+02 -3.3386707574e-04
2.5010680897e+02 -2.4370377055e-04
2.5483071201e+02 -1.5696480001e-04
2.5964142574e+02 -1.2292404072e-04
2.6454058900e+02 -1.3089037283e-04
2.6952987074e+02 -1.4710582778e-04
2.7461097059e+02 -1.5269622648e-04
2.7978561950e+02 -1.1877925386e-04
2.8505558025e+02 -9.2007686619e-05
2.9042264812e+02 -1.0248949183e-04
2.9588865145e+02 -1.3901604212e-04
3.0145545230e+02 -1.6326684193e-04
3.0712494704e+02 -1.8191139695e-04
3.1289906706e+02 -2.2135848777e-04
3.1877977936e+02 -2.7067077904e-04
3.2476908727e+02 -2.9787716414e-04
3.3086903110e+02 -3.1792409279e-04
3.3708168886e+02 -3.0741918753e-04
3.4340917693e+02 -3.0237782867e-04
3.4985365079e+02 -3.2360369030e-04
3.5641730571e+02 -3.4029154437e-04
3.6310237742e+02 -3.5435827900e-04
3.6991114271e+02 -3.4760088260e-04
3.7684591986e+02 -3.2598252300e-04
3.8390906882e+02 -3.0329673500e-04
3.9110299071e+02 -3.0645984135e-04
3.9843012636e+02 -3.4749711729e-04
4.0589295306e+02 -3.8694993966e-04
4.1349397829e+02 -3.8565799857e-04
4.2123572889e+02 -3.7346727867e-04
4.2912073304e+02 -3.5221665829e-04
4.3715149217e+02 -3.2272185653e-04
4.4533043852e+02 -2.9442486260e-04
4.5365987429e+02 -2.4956550563e-04
4.6214188770e+02 -2.1799019926e-04
4.7077824235e+02 -1.9370236641e-04
4.7957023817e+02 -1.7000380356e-04
4.8851854519e+02 -1.4271285746e-04
4.9762301594e+02 -1.1694819984e-04
5.0688248733e+02 -9.1837743360e-05
5.1629458829e+02 -6.6175609044e-05
5.2585557360e+02 -4.9173436115e-05
5.3556020708e+02 -3.6990009459e-05
5.4540171575e+02 -2.4248159838e-05
5.5537183282e+02 -1.3055444565e-05
5.6546093828e+02 -4.5885195708e-06
5.7565829575e+02 4.5109822590e-07
5.8595237151e+02 3.8489843798e-06
5.9633121136e+02 7.4226374715e-06
6.0678284256e+02 1.2640004272e-05
6.1729566514e+02 1.6546822654e-05
6.2785879892e+02 1.8217393410e-05
6.3846235889e+02 1.8688003942e-05
6.4909764242e+02 1.7089237050e-05
6.5975722295e+02 1.4871720496e-05
6.7043495588e+02 1.3104363588e-05
6.8112591136e+02 1.1704605768e-05
6.9182625336e+02 1.0619506654e-05
7.0253308669e+02 9.6706048756e-06
7.1324429176e+02 8.6246403217e-06
7.2395836319e+02 7.6718526186e-06
7.3467426374e+02 6.8337329171e-06
7.4539130004e+02 6.1433768615e-06
7.5610902239e+02 5.5543498166e-06
7.6682714778e+02 5.0301495148e-06
7.7754550345e+02 4.5514084224e-06
7.8826398703e+02 4.1104797009e-06
7.9898253968e+02 3.7222924871e-06
8.0970112858e+02 3.3754894509e-06
8.2041973597e+02 3.0863432172e-06
8.3113835253e+02 2.8315989905e-06
8.4185697350e+02 2.6080726070e-06
8.5257559653e+02 2.4027803864e-06
8.6329422051e+02 2.1945393481e-06
8.7401284489e+02 1.9788483068e-06
8.8473146946e+02 1.7600123489e-06
8.9545009410e+02 1.5549226826e-06
9.0616871877e+02 1.3663431545e-06
9.1688734345e+02 1.1905693595e-06
9.2760596814e+02 1.0140911880e-06
9.3832459282e+02 8.4787709646e-07
9.4904321751e+02 6.7635893898e-07
9.5976184220e+02 5.1006945018e-07
9.7048046689e+02 3.2718913374e-07
9.8119909158e+02 1.3747137877e-07
9.9191771626e+02 -6.1873195616e-08
1.0026363410e+03 -2.5333961788e-07
1.0133549656e+03 -4.3176203065e-07
1.0240735903e+03 -5.8260575404e-07
1.0347922150e+03 -7.0516613970e-07
1.0455108397e+03 -7.8881037069e-07
1.0562294644e+03 -8.3652922205e-07
1.0669480891e+03 -8.4790044914e-07
1.0776667138e+03 -8.2915123841e-07
1.0883853385e+03 -7.8900486656e-07
1.0991039631e+03 -7.3913208311e-07
1.1098225878e+03 -6.9477907256e-07
1.1205412125e+03 -6.6996451578e-07
1.1312598372e+03 -6.6833930843e-07
1.1419784619e+03 -6.8800735417e-07
1.1526970866e+03 -7.1669613086e-07
1.1634157113e+03 -7.4450802417e-07
1.1741343360e+03 -7.6865591251e-07
1.1848529607e+03 -7.9520124467e-07
1.1955715853e+03 -8.3670614870e-07
1.2062902100e+03 -8.9678299487e-07
1.2170088347e+03 -9.7166463481e-07
1.2277274594e+03 -1.0507602994e-06
1.2384460841e+03 -1.1279060424e-06
1.2491647088e+03 -1.2040608633e-06
1.2598833335e+03 -1.2776296756e-06
1.2706019582e+03 -1.3483213276e-06
1.2813205828e+03 -1.4069818947e-06
1.2920392075e+03 -1.4535368862e-06
1.3027578322e+03 -1.4838208319e-06
1.3134764569e+03 -1.5080078077e-06
1.3241950816e+03 -1.5273138020e-06
1.3349137063e+03 -1.5551622160e-06
1.3456323310e+03 -1.5871446683e-06
1.3563509557e+03 -1.6322715109e-06
1.3670695803e+03 -1.6800653930e-06
1.3777882050e+03 -1.7349608888e-06
1.3885068297e+03 -1.7836999268e-06
1.3992254544e+03 -1.8269273206e-06
1.4099440791e+03 -1.8556919480e-06
1.4206627038e+03 -1.8737808046e-06
1.4313813285e+03 -1.8817632481e-06
1.4420999532e+03 -1.8852640579e-06
1.4528185779e+03 -1.8905806362e-06
1.4635372025e+03 -1.9014157126e-06
1.4742558272e+03 -1.9265016098e-06
1.4849744519e+03 -1.9626780084e-06
1.4956930766e+03 -2.0134857906e-06
1.5064117013e+03 -2.0667239431e-06
1.5171303260e+03 -2.1238594830e-06
1.5278489507e+03 -2.1768224675e-06
1.5385675754e+03 -2.2290084909e-06
1.5492862000e+03 -2.2760839461e-06
1.5600048247e+03 -2.3160913484e-06
1.5707234494e+03 -2.3464633333e-06
1.5814420741e+03 -2.3636085033e-06
1.5921606988e+03 -2.3685301724e-06
1.6028793235e+03 -2.3589928262e-06
1.6135979482e+03 -2.3394250126e-06
1.6243165729e+03 -2.3116417959e-06
1.6350351976e+03 -2.2830323053e-06
1.6457538222e+03 -2.2575221919e-06
1.6564724469e+03 -2.2404945371e-06
1.6671910716e+03 -2.2324265342e-06
1.6779096963e+03 -2.2331299710e-06
1.6886283210e+03 -2.2394487435e-06
1.6993469457e+03 -2.2472785956e-06
1.7100655704e+03 -2.2488438388e-06
1.7207841951e+03 -2.2350987411e-06
1.7315028197e+03 -2.1996899180e-06
1.7422214444e+03 -2.1411534810e-06
1.7529400691e+03 -2.0663524376e-06
1.7636586938e+03 -1.9823058806e-06
1.7743773185e+03 -1.9013379295e-06
1.7850959432e+03 -1.8295883420e-06
1.7958145679e+03 -1.7761574945e-06
1.8065331926e+03 -1.7415027468e-06
1.8172518173e+03 -1.7242346638e-06
1.8279704419e+03 -1.7192910415e-06
1.8386890666e+03 -1.7211450747e-06
1.8494076913e+03 -1.7324103971e-06
1.8601263160e+03 -1.7522737720e-06
1.8708449407e+03 -1.7861564789e-06
1.8815635654e+03 -1.8261909233e-06
1.8922821901e+03 -1.8665109586e-06
1.9030008148e+03 -1.8971174726e-06
1.9137194394e+03 -1.9118073097e-06
1.9244380641e+03 -1.9148366214e-06
1.9351566888e+03 -1.9029551697e-06
1.9458753135e+03 -1.8918462596e-06
1.9565939382e+03 -1.8696264057e-06
1.9673125629e+03 -1.8569363983e-06
1.9780311876e+03 -1.8275319892e-06
1.9887498123e+03 -1.8098471528e-06
1.9994684369e+03 -1.7706233671e-06
2.0101870616e+03 -1.7524618347e-06
2.0209056863e+03 -1.7207521337e-06
2.0316243110e+03 -1.7269859039e-06
2.0423429357e+03 -1.7295015115e-06
2.0530615604e+03 -1.7778690388e-06
2.0637801851e+03 -1.8169124365e-06
2.0744988098e+03 -1.8919820615e-06
2.0852174345e+03 -1.9366865079e-06
2.0959360591e+03 -2.0038874651e-06
2.1066546838e+03 -2.0270219776e-06
2.1173733085e+03 -2.0725094122e-06
2.1280919332e+03 -2.0748864333e-06
2.1388105579e+03 -2.1052908977e-06
2.1495291826e+03 -2.0998968527e-06
2.1602478073e+03 -2.1212733356e-06
2.1709664320e+03 -2.1094762917e-06
2.1816850566e+03 -2.1110795415e-06
2.1924036813e+03 -2.0857550039e-06
2.2031223060e+03 -2.0675859431e-06
2.2138409307e+03 -2.0386715313e-06
2.2245595554e+03 -2.0150178167e-06
2.2352781801e+03 -1.9898322000e-06
2.2459968048e+03 -1.9618338747e-06
2.2567154295e+03 -1.9335867777e-06
2.2674340542e+03 -1.8902329790e-06
2.2781526788e+03 -1.8427638298e-06
2.2888713035e+03 -1.7672872174e-06
2.2995899282e+03 -1.6860089195e-06
2.3103085529e+03 -1.5807469140e-06
2.3210271776e+03 -1.4824556414e-06
2.3317458023e+03 -1.3841485994e-06
2.3424644270e+03 -1.3064310846e-06
2.3531830517e+03 -1.2481051896e-06
2.3639016763e+03 -1.2043706641e-06
2.3746203010e+03 -1.1851394986e-06
2.3853389257e+03 -1.1630473088e-06
2.3960575504e+03 -1.1725990221e-06
2.4067761751e+03 -1.1624864517e-06
2.4174947998e+03 -1.1969236400e-06
2.4282134245e+03 -1.1865963768e-06
2.4389320492e+03 -1.2324880956e-06
2.4496506739e+03 -1.1996463577e-06
2.4603692985e+03 -1.2450602228e-06
2.4710879232e+03 -1.1820778573e-06
2.4818065479e+03 -1.2375334276e-06
2.4925251726e+03 -1.1571507684e-06
2.5032437973e+03 -1.2488481402e-06
2.5139624220e+03 -1.1736775049e-06
2.5246810467e+03 -1.3330013537e-06
2.5353996714e+03 -1.2789891278e-06
2.5461182960e+03 -1.5203683119e-06
2.5568369207e+03 -1.4734455072e-06
2.5675555454e+03 -1.7848768652e-06
2.5782741701e+03 -1.7072610585e-06
2.5889927948e+03 -2.0616501425e-06
2.5997114195e+03 -1.9142637001e-06
2.6104300442e+03 -2.2877502813e-06
2.6211486689e+03 -2.0593186272e-06
2.6318672935e+03 -2.4383691613e-06
2.6425859182e+03 -2.1563229050e-06
2.6533045429e+03 -2.5233575891e-06
2.6640231676e+03 -2.2587032027e-06
2.6747417923e+03 -2.5623291020e-06
2.6854604170e+03 -2.4352770687e-06
2.6961790417e+03 -2.5565395537e-06
2.7068976664e+03 -2.7287077909e-06
2.7176162911e+03 -2.4795845526e-06
2.7283349157e+03 -3.0705575327e-06
2.7390535404e+03 -3.0649068543e-05
2.7497721651e+03 8.6273009880e-06
2.7604907898e+03 1.4757486726e-04
