# Turbulent kinetic energy budget term: TT (triple-correlation transport)
# Definition: TT = -\partial_{x_j} [ 0.5 \bar{\rho} \widetilde{u_i'' u_i'' u_j''} ]
# Columns: y_plus    TT^+
3.9100267708e-01 -1.7280389543e-03
1.1669246953e+00 1.7043450394e-03
1.9435303622e+00 1.0789399651e-02
2.7210037404e+00 2.5530189449e-02
3.4995481111e+00 4.0576081639e-02
4.2793829765e+00 5.0215272590e-02
5.0607410474e+00 5.0455709945e-02
5.8438654524e+00 4.1077115893e-02
6.6290073199e+00 2.4495172576e-02
7.4164238012e+00 4.1840031520e-03
8.2063765381e+00 -1.6546979634e-02
8.9991305383e+00 -3.5271660329e-02
9.7949533913e+00 -5.0476280682e-02
1.0594114757e+01 -6.1659090675e-02
1.1396886058e+01 -6.8885746115e-02
1.2203540314e+01 -7.2699115448e-02
1.3014352078e+01 -7.3661623611e-02
1.3829597436e+01 -7.2424092354e-02
1.4649554046e+01 -6.9508856664e-02
1.5474501205e+01 -6.5469812643e-02
1.6304719923e+01 -6.0738608546e-02
1.7140493017e+01 -5.5707918369e-02
1.7982105198e+01 -5.0597355979e-02
1.8829843169e+01 -4.5537949349e-02
1.9683995721e+01 -4.0553555530e-02
2.0544853828e+01 -3.5677280416e-02
2.1412710751e+01 -3.0978038462e-02
2.2287862134e+01 -2.6579793308e-02
2.3170606107e+01 -2.2577176980e-02
2.4061243385e+01 -1.8995927775e-02
2.4960077373e+01 -1.5823898234e-02
2.5867414268e+01 -1.3041951630e-02
2.6783563163e+01 -1.0624946022e-02
2.7708836155e+01 -8.5069560882e-03
2.8643548447e+01 -6.6224327600e-03
2.9588018458e+01 -4.9336873992e-03
3.0542567932e+01 -3.4512881031e-03
3.1507522046e+01 -2.1614098127e-03
3.2483209521e+01 -1.0236810063e-03
3.3469962736e+01 1.3757309611e-05
3.4468117838e+01 9.5397562490e-04
3.5478014859e+01 1.7831811069e-03
3.6499997830e+01 2.5052700583e-03
3.7534414901e+01 3.1743483312e-03
3.8581618456e+01 3.8027215696e-03
3.9641965236e+01 4.3205549396e-03
4.0715816460e+01 4.6346136472e-03
4.1803537945e+01 4.7518028342e-03
4.2905500235e+01 4.7683354103e-03
4.4022078725e+01 4.7857893718e-03
4.5153653789e+01 4.8364392888e-03
4.6300610910e+01 4.9131629702e-03
4.7463340810e+01 4.9979852052e-03
4.8642239585e+01 5.0908333313e-03
4.9837708839e+01 5.1814505791e-03
5.1050155822e+01 5.2440400455e-03
5.2279993564e+01 5.2617955384e-03
5.3527641025e+01 5.2572404422e-03
5.4793523226e+01 5.2592405127e-03
5.6078071405e+01 5.2803274894e-03
5.7381723156e+01 5.3077599546e-03
5.8704922581e+01 5.3039719913e-03
6.0048120441e+01 5.2113049287e-03
6.1411774312e+01 4.9933291188e-03
6.2796348734e+01 4.6473946973e-03
6.4202315379e+01 4.2176508494e-03
6.5630153203e+01 3.7799359291e-03
6.7080348613e+01 3.3902681673e-03
6.8553395635e+01 3.0641114740e-03
7.0049796075e+01 2.7866288000e-03
7.1570059699e+01 2.5185307457e-03
7.3114704399e+01 2.2683893530e-03
7.4684256376e+01 2.0944131842e-03
7.6279250313e+01 2.0116398010e-03
7.7900229560e+01 1.9867202986e-03
7.9547746322e+01 1.9821773384e-03
8.1222361842e+01 1.9687076645e-03
8.2924646595e+01 1.9420628312e-03
8.4655180482e+01 1.9199160505e-03
8.6414553026e+01 1.9128624788e-03
8.8203363577e+01 1.9116693920e-03
9.0022221510e+01 1.8930071228e-03
9.1871746439e+01 1.8532311849e-03
9.3752568424e+01 1.8638825855e-03
9.5665328185e+01 1.9604015823e-03
9.7610677324e+01 2.0944102856e-03
9.9589278544e+01 2.2388709787e-03
1.0160180588e+02 2.3495674622e-03
1.0364894491e+02 2.3900941712e-03
1.0573139302e+02 2.4213025067e-03
1.0784985962e+02 2.4483625671e-03
1.1000506638e+02 2.4120983532e-03
1.1219774750e+02 2.3252979892e-03
1.1442864993e+02 2.2313035740e-03
1.1669853366e+02 2.1142964447e-03
1.1900817195e+02 1.9631133405e-03
1.2135835159e+02 1.8153732445e-03
1.2374987321e+02 1.6529031425e-03
1.2618355149e+02 1.4377966851e-03
1.2866021550e+02 1.2067101811e-03
1.3118070893e+02 9.9237416991e-04
1.3374589042e+02 8.0079820547e-04
1.3635663383e+02 6.5328692022e-04
1.3901382852e+02 6.1352960530e-04
1.4171837970e+02 6.6032042937e-04
1.4447120871e+02 6.6914320507e-04
1.4727325332e+02 6.2074708420e-04
1.5012546808e+02 5.5001355515e-04
1.5302882462e+02 5.0204279827e-04
1.5598431200e+02 5.2392780986e-04
1.5899293705e+02 5.5385331207e-04
1.6205572468e+02 4.8522990028e-04
1.6517371825e+02 3.4588381273e-04
1.6834797995e+02 1.8226731296e-04
1.7157959112e+02 6.4835088071e-05
1.7486965264e+02 -2.6951873612e-05
1.7821928531e+02 -1.2574883418e-04
1.8162963021e+02 -9.7969140272e-05
1.8510184912e+02 2.0585889932e-05
1.8863712487e+02 1.4992223493e-04
1.9223666179e+02 2.2428383047e-04
1.9590168612e+02 2.9551075687e-04
1.9963344636e+02 3.6289410921e-04
2.0343321380e+02 3.5145577138e-04
2.0730228285e+02 3.2543409989e-04
2.1124197156e+02 3.6409698836e-04
2.1525362201e+02 4.1673822177e-04
2.1933860083e+02 4.4247059408e-04
2.2349829959e+02 5.1169502874e-04
2.2773413535e+02 6.0096330212e-04
2.3204755109e+02 5.9581742782e-04
2.3644001621e+02 5.7153486134e-04
2.4091302705e+02 6.3661731988e-04
2.4546810739e+02 6.6802034776e-04
2.5010680897e+02 6.7739047322e-04
2.5483071201e+02 6.7781904268e-04
2.5964142574e+02 6.2681362966e-04
2.6454058900e+02 6.1483689819e-04
2.6952987074e+02 6.7586554564e-04
2.7461097059e+02 7.3464904935e-04
2.7978561950e+02 7.5646268406e-04
2.8505558025e+02 7.6694607039e-04
2.9042264812e+02 8.4464338380e-04
2.9588865145e+02 9.7157824037e-04
3.0145545230e+02 1.0096490491e-03
3.0712494704e+02 1.0341207915e-03
3.1289906706e+02 1.1391969903e-03
3.1877977936e+02 1.2987797042e-03
3.2476908727e+02 1.3956049988e-03
3.3086903110e+02 1.4163537418e-03
3.3708168886e+02 1.4461824259e-03
3.4340917693e+02 1.5056298482e-03
3.4985365079e+02 1.5900939047e-03
3.5641730571e+02 1.7041399859e-03
3.6310237742e+02 1.7577338643e-03
3.6991114271e+02 1.7373533630e-03
3.7684591986e+02 1.7375016788e-03
3.8390906882e+02 1.7399919985e-03
3.9110299071e+02 1.7699450382e-03
3.9843012636e+02 1.8225852622e-03
4.0589295306e+02 1.8975090813e-03
4.1349397829e+02 1.9469892434e-03
4.2123572889e+02 1.8891617058e-03
4.2912073304e+02 1.7693838319e-03
4.3715149217e+02 1.6355629818e-03
4.4533043852e+02 1.5093241658e-03
4.5365987429e+02 1.3749112092e-03
4.6214188770e+02 1.2476138415e-03
4.7077824235e+02 1.1369005677e-03
4.7957023817e+02 9.9669522954e-04
4.8851854519e+02 8.4542579007e-04
4.9762301594e+02 7.2677095645e-04
5.0688248733e+02 6.1736665734e-04
5.1629458829e+02 5.1625266213e-04
5.2585557360e+02 4.1816594865e-04
5.3556020708e+02 3.3922261639e-04
5.4540171575e+02 2.7297625490e-04
5.5537183282e+02 2.1237748736e-04
5.6546093828e+02 1.6508762897e-04
5.7565829575e+02 1.2811724857e-04
5.8595237151e+02 9.9915464603e-05
5.9633121136e+02 7.6792529072e-05
6.0678284256e+02 5.6210453414e-05
6.1729566514e+02 3.9810100419e-05
6.2785879892e+02 2.7950703869e-05
6.3846235889e+02 1.8911538177e-05
6.4909764242e+02 1.3553005746e-05
6.5975722295e+02 1.0864866621e-05
6.7043495588e+02 8.2005493835e-06
6.8112591136e+02 5.3396053236e-06
6.9182625336e+02 3.6804549609e-06
7.0253308669e+02 2.1856411030e-06
7.1324429176e+02 1.3710521139e-06
7.2395836319e+02 1.0791697258e-06
7.3467426374e+02 9.6208935054e-07
7.4539130004e+02 7.9230720515e-07
7.5610902239e+02 5.7793976000e-07
7.6682714778e+02 4.0196565455e-07
7.7754550345e+02 2.9716753218e-07
7.8826398703e+02 2.3071928455e-07
7.9898253968e+02 1.8430966870e-07
8.0970112858e+02 1.4937454919e-07
8.2041973597e+02 1.2237747317e-07
8.3113835253e+02 1.0104960930e-07
8.4185697350e+02 8.3896528334e-08
8.5257559653e+02 6.9963521128e-08
8.6329422051e+02 5.8527161136e-08
8.7401284489e+02 4.9096538993e-08
8.8473146946e+02 4.1303512836e-08
8.9545009410e+02 3.4858033323e-08
9.0616871877e+02 2.9555712502e-08
9.1688734345e+02 2.5126400649e-08
9.2760596814e+02 2.1466267003e-08
9.3832459282e+02 1.8414524235e-08
9.4904321751e+02 1.5849218867e-08
9.5976184220e+02 1.3683792003e-08
9.7048046689e+02 1.1826192010e-08
9.8119909158e+02 1.0253208589e-08
9.9191771626e+02 8.8828415071e-09
1.0026363410e+03 7.6443973458e-09
1.0133549656e+03 6.5407946410e-09
1.0240735903e+03 5.5357096347e-09
1.0347922150e+03 4.6347978148e-09
1.0455108397e+03 3.8165768523e-09
1.0562294644e+03 3.1154815164e-09
1.0669480891e+03 2.5432361802e-09
1.0776667138e+03 2.1024134613e-09
1.0883853385e+03 1.7771617130e-09
1.0991039631e+03 1.5317447766e-09
1.1098225878e+03 1.3218621364e-09
1.1205412125e+03 1.0989468536e-09
1.1312598372e+03 9.0001460617e-10
1.1419784619e+03 6.9306417943e-10
1.1526970866e+03 5.1203712971e-10
1.1634157113e+03 3.4375579888e-10
1.1741343360e+03 2.5167835495e-10
1.1848529607e+03 1.8193275319e-10
1.1955715853e+03 1.0755506880e-10
1.2062902100e+03 4.9725474122e-11
1.2170088347e+03 1.8148561705e-11
1.2277274594e+03 -1.3644569153e-11
1.2384460841e+03 1.8733421458e-11
1.2491647088e+03 3.4021795994e-11
1.2598833335e+03 8.4621732060e-11
1.2706019582e+03 1.1581114381e-10
1.2813205828e+03 1.9438599275e-10
1.2920392075e+03 2.3241315114e-10
1.3027578322e+03 2.4657891458e-10
1.3134764569e+03 2.5243598307e-10
1.3241950816e+03 1.9958529540e-10
1.3349137063e+03 1.7853533476e-10
1.3456323310e+03 9.4462780807e-11
1.3563509557e+03 6.7008622765e-12
1.3670695803e+03 -2.0351513819e-11
1.3777882050e+03 -8.1349622051e-11
1.3885068297e+03 -6.1309508670e-11
1.3992254544e+03 -6.5563823390e-11
1.4099440791e+03 -3.6461360482e-11
1.4206627038e+03 -3.0980225906e-11
1.4313813285e+03 -4.6164616275e-12
1.4420999532e+03 8.7810031186e-12
1.4528185779e+03 1.4005166937e-11
1.4635372025e+03 1.3961508144e-11
1.4742558272e+03 1.5627305578e-11
1.4849744519e+03 8.1760856055e-11
1.4956930766e+03 1.1490528236e-10
1.5064117013e+03 1.6794619888e-10
1.5171303260e+03 2.1495735721e-10
1.5278489507e+03 2.6547319255e-10
1.5385675754e+03 2.8838555541e-10
1.5492862000e+03 3.1999860036e-10
1.5600048247e+03 3.2536398893e-10
1.5707234494e+03 3.1534588058e-10
1.5814420741e+03 3.2220956932e-10
1.5921606988e+03 2.9110737076e-10
1.6028793235e+03 2.6038702403e-10
1.6135979482e+03 2.5221198504e-10
1.6243165729e+03 2.1232114857e-10
1.6350351976e+03 8.8205701888e-11
1.6457538222e+03 -2.8780575633e-11
1.6564724469e+03 -1.5609090115e-10
1.6671910716e+03 -2.6184587370e-10
1.6779096963e+03 -3.6979361004e-10
1.6886283210e+03 -4.6711849192e-10
1.6993469457e+03 -5.9098288647e-10
1.7100655704e+03 -7.2016634447e-10
1.7207841951e+03 -8.0886036592e-10
1.7315028197e+03 -8.6236549616e-10
1.7422214444e+03 -8.9663961895e-10
1.7529400691e+03 -8.8076392052e-10
1.7636586938e+03 -8.5033443722e-10
1.7743773185e+03 -8.3340540851e-10
1.7850959432e+03 -7.8187685201e-10
1.7958145679e+03 -7.6073724587e-10
1.8065331926e+03 -7.0446005965e-10
1.8172518173e+03 -6.7905637941e-10
1.8279704419e+03 -6.4868643182e-10
1.8386890666e+03 -5.9069411642e-10
1.8494076913e+03 -4.9541351087e-10
1.8601263160e+03 -3.8158588764e-10
1.8708449407e+03 -3.0766358737e-10
1.8815635654e+03 -1.6404121826e-10
1.8922821901e+03 -7.6946980026e-11
1.9030008148e+03 1.2142392160e-11
1.9137194394e+03 5.6450243863e-11
1.9244380641e+03 1.0691178494e-10
1.9351566888e+03 1.2059033869e-10
1.9458753135e+03 1.0508898259e-10
1.9565939382e+03 9.0983396989e-11
1.9673125629e+03 1.4048012953e-11
1.9780311876e+03 -1.4166999076e-11
1.9887498123e+03 -1.0576090668e-10
1.9994684369e+03 -1.8385519427e-10
2.0101870616e+03 -3.0791055716e-10
2.0209056863e+03 -3.8890981132e-10
2.0316243110e+03 -5.5653410319e-10
2.0423429357e+03 -6.4231819322e-10
2.0530615604e+03 -7.3044013756e-10
2.0637801851e+03 -7.3862293796e-10
2.0744988098e+03 -6.9619080304e-10
2.0852174345e+03 -5.7535809695e-10
2.0959360591e+03 -4.0747244226e-10
2.1066546838e+03 -2.4244758185e-10
2.1173733085e+03 -7.7985228331e-11
2.1280919332e+03 1.0586586330e-10
2.1388105579e+03 2.2073892368e-10
2.1495291826e+03 3.6437556320e-10
2.1602478073e+03 4.5983470635e-10
2.1709664320e+03 5.8312504237e-10
2.1816850566e+03 6.9230850431e-10
2.1924036813e+03 7.8990461650e-10
2.2031223060e+03 8.6319311604e-10
2.2138409307e+03 9.3871226079e-10
2.2245595554e+03 1.0040647558e-09
2.2352781801e+03 1.0990761207e-09
2.2459968048e+03 1.1746555214e-09
2.2567154295e+03 1.2073853104e-09
2.2674340542e+03 1.2176437743e-09
2.2781526788e+03 1.2279422654e-09
2.2888713035e+03 1.1699949279e-09
2.2995899282e+03 1.0960874122e-09
2.3103085529e+03 1.0352915181e-09
2.3210271776e+03 9.4932909018e-10
2.3317458023e+03 9.0246811370e-10
2.3424644270e+03 8.5906826455e-10
2.3531830517e+03 8.0003424111e-10
2.3639016763e+03 7.3967695504e-10
2.3746203010e+03 6.9868896482e-10
2.3853389257e+03 6.5330607758e-10
2.3960575504e+03 5.6021693417e-10
2.4067761751e+03 4.7560699355e-10
2.4174947998e+03 4.2474536281e-10
2.4282134245e+03 3.5606495668e-10
2.4389320492e+03 3.1123848518e-10
2.4496506739e+03 3.1754052163e-10
2.4603692985e+03 3.1120635638e-10
2.4710879232e+03 3.5120615249e-10
2.4818065479e+03 3.7011870893e-10
2.4925251726e+03 4.1889481562e-10
2.5032437973e+03 4.4855772568e-10
2.5139624220e+03 5.0791477693e-10
2.5246810467e+03 4.6735414578e-10
2.5353996714e+03 3.7655872402e-10
2.5461182960e+03 2.5448134097e-10
2.5568369207e+03 7.4749465973e-11
2.5675555454e+03 -1.3322996545e-10
2.5782741701e+03 -3.2585862962e-10
2.5889927948e+03 -5.4134926777e-10
2.5997114195e+03 -7.1229825727e-10
2.6104300442e+03 -8.6343600508e-10
2.6211486689e+03 -9.9074806262e-10
2.6318672935e+03 -1.1104375094e-09
2.6425859182e+03 -1.1001422645e-09
2.6533045429e+03 -1.0951312911e-09
2.6640231676e+03 -9.2291651321e-10
2.6747417923e+03 -7.0470187641e-10
2.6854604170e+03 -4.0118507220e-10
2.6961790417e+03 -7.6603187756e-11
2.7068976664e+03 1.9551259009e-10
2.7176162911e+03 5.3367412001e-10
2.7283349157e+03 7.6419951975e-10
2.7390535404e+03 1.8336527709e-09
2.7497721651e+03 1.0782827489e-09
2.7604907898e+03 1.8517321595e-09
