# Turbulent kinetic energy budget term: phi (viscous dissipation)
# Definition: phi = \overline{\sigma_{ij}' \partial u_i'' / \partial x_j}
# Columns: y_plus    phi^+
3.9100267708e-01 -2.2395901231e-01
1.1669246953e+00 -2.0314413451e-01
1.9435303622e+00 -1.9175839028e-01
2.7210037404e+00 -1.8123775733e-01
3.4995481111e+00 -1.7047556291e-01
4.2793829765e+00 -1.6039858396e-01
5.0607410474e+00 -1.5231141699e-01
5.8438654524e+00 -1.4682502121e-01
6.6290073199e+00 -1.4375400416e-01
7.4164238012e+00 -1.4243779619e-01
8.2063765381e+00 -1.4212336567e-01
8.9991305383e+00 -1.4214988614e-01
9.7949533913e+00 -1.4204331972e-01
1.0594114757e+01 -1.4152608284e-01
1.1396886058e+01 -1.4049948774e-01
1.2203540314e+01 -1.3897868386e-01
1.3014352078e+01 -1.3703001711e-01
1.3829597436e+01 -1.3472350712e-01
1.4649554046e+01 -1.3212036567e-01
1.5474501205e+01 -1.2927541464e-01
1.6304719923e+01 -1.2624946479e-01
1.7140493017e+01 -1.2310764301e-01
1.7982105198e+01 -1.1990589140e-01
1.8829843169e+01 -1.1667780747e-01
1.9683995721e+01 -1.1344201053e-01
2.0544853828e+01 -1.1021719766e-01
2.1412710751e+01 -1.0702910815e-01
2.2287862134e+01 -1.0390167635e-01
2.3170606107e+01 -1.0084730849e-01
2.4061243385e+01 -9.7870159424e-02
2.4960077373e+01 -9.4975715494e-02
2.5867414268e+01 -9.2165818522e-02
2.6783563163e+01 -8.9430871808e-02
2.7708836155e+01 -8.6757171611e-02
2.8643548447e+01 -8.4141484963e-02
2.9588018458e+01 -8.1594202641e-02
3.0542567932e+01 -7.9129438487e-02
3.1507522046e+01 -7.6752163138e-02
3.2483209521e+01 -7.4457946513e-02
3.3469962736e+01 -7.2239700265e-02
3.4468117838e+01 -7.0090072315e-02
3.5478014859e+01 -6.8006424902e-02
3.6499997830e+01 -6.5995922625e-02
3.7534414901e+01 -6.4068933325e-02
3.8581618456e+01 -6.2231950986e-02
3.9641965236e+01 -6.0486666174e-02
4.0715816460e+01 -5.8822929876e-02
4.1803537945e+01 -5.7220233460e-02
4.2905500235e+01 -5.5662265077e-02
4.4022078725e+01 -5.4145060119e-02
4.5153653789e+01 -5.2669022099e-02
4.6300610910e+01 -5.1231109310e-02
4.7463340810e+01 -4.9831805602e-02
4.8642239585e+01 -4.8474878990e-02
4.9837708839e+01 -4.7165003008e-02
5.1050155822e+01 -4.5908982943e-02
5.2279993564e+01 -4.4703699649e-02
5.3527641025e+01 -4.3535975145e-02
5.4793523226e+01 -4.2399170243e-02
5.6078071405e+01 -4.1298606459e-02
5.7381723156e+01 -4.0243507806e-02
5.8704922581e+01 -3.9236364321e-02
6.0048120441e+01 -3.8268207399e-02
6.1411774312e+01 -3.7328431670e-02
6.2796348734e+01 -3.6415237252e-02
6.4202315379e+01 -3.5534894569e-02
6.5630153203e+01 -3.4689518678e-02
6.7080348613e+01 -3.3879816109e-02
6.8553395635e+01 -3.3104044905e-02
7.0049796075e+01 -3.2354236862e-02
7.1570059699e+01 -3.1627478852e-02
7.3114704399e+01 -3.0919676675e-02
7.4684256376e+01 -3.0229069670e-02
7.6279250313e+01 -2.9553396646e-02
7.7900229560e+01 -2.8887715031e-02
7.9547746322e+01 -2.8236362392e-02
8.1222361842e+01 -2.7599804829e-02
8.2924646595e+01 -2.6972585041e-02
8.4655180482e+01 -2.6360487652e-02
8.6414553026e+01 -2.5773880725e-02
8.8203363577e+01 -2.5211929008e-02
9.0022221510e+01 -2.4666541042e-02
9.1871746439e+01 -2.4134462068e-02
9.3752568424e+01 -2.3611368629e-02
9.5665328185e+01 -2.3101580501e-02
9.7610677324e+01 -2.2606709051e-02
9.9589278544e+01 -2.2113160365e-02
1.0160180588e+02 -2.1624721859e-02
1.0364894491e+02 -2.1148644876e-02
1.0573139302e+02 -2.0676092090e-02
1.0784985962e+02 -2.0214941531e-02
1.1000506638e+02 -1.9773164506e-02
1.1219774750e+02 -1.9342564573e-02
1.1442864993e+02 -1.8923359819e-02
1.1669853366e+02 -1.8508432758e-02
1.1900817195e+02 -1.8096696364e-02
1.2135835159e+02 -1.7695194225e-02
1.2374987321e+02 -1.7308590872e-02
1.2618355149e+02 -1.6936075841e-02
1.2866021550e+02 -1.6573246667e-02
1.3118070893e+02 -1.6218805282e-02
1.3374589042e+02 -1.5869781386e-02
1.3635663383e+02 -1.5523554434e-02
1.3901382852e+02 -1.5174021500e-02
1.4171837970e+02 -1.4835587476e-02
1.4447120871e+02 -1.4510999797e-02
1.4727325332e+02 -1.4189422884e-02
1.5012546808e+02 -1.3869377789e-02
1.5302882462e+02 -1.3541573131e-02
1.5598431200e+02 -1.3213535836e-02
1.5899293705e+02 -1.2900854077e-02
1.6205572468e+02 -1.2599870871e-02
1.6517371825e+02 -1.2297192874e-02
1.6834797995e+02 -1.1997835046e-02
1.7157959112e+02 -1.1701958940e-02
1.7486965264e+02 -1.1417262730e-02
1.7821928531e+02 -1.1138271962e-02
1.8162963021e+02 -1.0849916896e-02
1.8510184912e+02 -1.0566992265e-02
1.8863712487e+02 -1.0300517700e-02
1.9223666179e+02 -1.0040516037e-02
1.9590168612e+02 -9.7757260018e-03
1.9963344636e+02 -9.5109756881e-03
2.0343321380e+02 -9.2478052383e-03
2.0730228285e+02 -8.9796715375e-03
2.1124197156e+02 -8.7200018085e-03
2.1525362201e+02 -8.4753581213e-03
2.1933860083e+02 -8.2246458800e-03
2.2349829959e+02 -7.9659900763e-03
2.2773413535e+02 -7.7176718936e-03
2.3204755109e+02 -7.4696446086e-03
2.3644001621e+02 -7.2203805956e-03
2.4091302705e+02 -6.9717634213e-03
2.4546810739e+02 -6.7277530646e-03
2.5010680897e+02 -6.4874077333e-03
2.5483071201e+02 -6.2572485676e-03
2.5964142574e+02 -6.0319642018e-03
2.6454058900e+02 -5.7983054752e-03
2.6952987074e+02 -5.5668049312e-03
2.7461097059e+02 -5.3390153349e-03
2.7978561950e+02 -5.1084903397e-03
2.8505558025e+02 -4.8810618321e-03
2.9042264812e+02 -4.6524088842e-03
2.9588865145e+02 -4.4284699778e-03
3.0145545230e+02 -4.2060502494e-03
3.0712494704e+02 -3.9846486675e-03
3.1289906706e+02 -3.7709210814e-03
3.1877977936e+02 -3.5697639864e-03
3.2476908727e+02 -3.3702393965e-03
3.3086903110e+02 -3.1701124128e-03
3.3708168886e+02 -2.9726919101e-03
3.4340917693e+02 -2.7813116150e-03
3.4985365079e+02 -2.5934880033e-03
3.5641730571e+02 -2.4105692228e-03
3.6310237742e+02 -2.2288945199e-03
3.6991114271e+02 -2.0541590434e-03
3.7684591986e+02 -1.8837742094e-03
3.8390906882e+02 -1.7216789044e-03
3.9110299071e+02 -1.5597547723e-03
3.9843012636e+02 -1.4055298665e-03
4.0589295306e+02 -1.2610124155e-03
4.1349397829e+02 -1.1270633615e-03
4.2123572889e+02 -1.0011634740e-03
4.2912073304e+02 -8.8456724340e-04
4.3715149217e+02 -7.7530626125e-04
4.4533043852e+02 -6.7486004041e-04
4.5365987429e+02 -5.8159086640e-04
4.6214188770e+02 -4.9638850758e-04
4.7077824235e+02 -4.1951798769e-04
4.7957023817e+02 -3.4983489770e-04
4.8851854519e+02 -2.8870197578e-04
4.9762301594e+02 -2.3692105580e-04
5.0688248733e+02 -1.9335281266e-04
5.1629458829e+02 -1.5647128208e-04
5.2585557360e+02 -1.2523489916e-04
5.3556020708e+02 -9.8265923626e-05
5.4540171575e+02 -7.6406816808e-05
5.5537183282e+02 -5.8833303209e-05
5.6546093828e+02 -4.4560333385e-05
5.7565829575e+02 -3.3616118257e-05
5.8595237151e+02 -2.5169025805e-05
5.9633121136e+02 -1.8675304905e-05
6.0678284256e+02 -1.4062387898e-05
6.1729566514e+02 -1.0568448219e-05
6.2785879892e+02 -7.7676168452e-06
6.3846235889e+02 -5.6599225882e-06
6.4909764242e+02 -4.1738603516e-06
6.5975722295e+02 -3.1303725574e-06
6.7043495588e+02 -2.4021148345e-06
6.8112591136e+02 -1.8424467443e-06
6.9182625336e+02 -1.4577403407e-06
7.0253308669e+02 -1.1204106687e-06
7.1324429176e+02 -8.8100672359e-07
7.2395836319e+02 -7.2715328578e-07
7.3467426374e+02 -6.3064398488e-07
7.4539130004e+02 -5.5999406863e-07
7.5610902239e+02 -4.9188260721e-07
7.6682714778e+02 -4.3172396057e-07
7.7754550345e+02 -3.8639969908e-07
7.8826398703e+02 -3.5156024970e-07
7.9898253968e+02 -3.2386667067e-07
8.0970112858e+02 -3.0108046418e-07
8.2041973597e+02 -2.8200404532e-07
8.3113835253e+02 -2.6587662744e-07
8.4185697350e+02 -2.5217201777e-07
8.5257559653e+02 -2.4046884321e-07
8.6329422051e+02 -2.3043377807e-07
8.7401284489e+02 -2.2181239898e-07
8.8473146946e+02 -2.1439760969e-07
8.9545009410e+02 -2.0804178529e-07
9.0616871877e+02 -2.0259454250e-07
9.1688734345e+02 -1.9793994318e-07
9.2760596814e+02 -1.9396951322e-07
9.3832459282e+02 -1.9059944939e-07
9.4904321751e+02 -1.8775976212e-07
9.5976184220e+02 -1.8539488976e-07
9.7048046689e+02 -1.8345755717e-07
9.8119909158e+02 -1.8188223378e-07
9.9191771626e+02 -1.8060895435e-07
1.0026363410e+03 -1.7957997167e-07
1.0133549656e+03 -1.7876243897e-07
1.0240735903e+03 -1.7813888677e-07
1.0347922150e+03 -1.7769558797e-07
1.0455108397e+03 -1.7742321468e-07
1.0562294644e+03 -1.7730650190e-07
1.0669480891e+03 -1.7732816266e-07
1.0776667138e+03 -1.7747482147e-07
1.0883853385e+03 -1.7772892071e-07
1.0991039631e+03 -1.7808387576e-07
1.1098225878e+03 -1.7852142499e-07
1.1205412125e+03 -1.7903926327e-07
1.1312598372e+03 -1.7961957743e-07
1.1419784619e+03 -1.8026206672e-07
1.1526970866e+03 -1.8094489651e-07
1.1634157113e+03 -1.8166536125e-07
1.1741343360e+03 -1.8240571637e-07
1.1848529607e+03 -1.8316668967e-07
1.1955715853e+03 -1.8393247450e-07
1.2062902100e+03 -1.8470826388e-07
1.2170088347e+03 -1.8548934832e-07
1.2277274594e+03 -1.8629440578e-07
1.2384460841e+03 -1.8712793409e-07
1.2491647088e+03 -1.8800487576e-07
1.2598833335e+03 -1.8891904335e-07
1.2706019582e+03 -1.8986751371e-07
1.2813205828e+03 -1.9082843256e-07
1.2920392075e+03 -1.9178691485e-07
1.3027578322e+03 -1.9272547391e-07
1.3134764569e+03 -1.9364560471e-07
1.3241950816e+03 -1.9455462988e-07
1.3349137063e+03 -1.9546255117e-07
1.3456323310e+03 -1.9637593506e-07
1.3563509557e+03 -1.9729039341e-07
1.3670695803e+03 -1.9821248571e-07
1.3777882050e+03 -1.9913204124e-07
1.3885068297e+03 -2.0005636214e-07
1.3992254544e+03 -2.0097290007e-07
1.4099440791e+03 -2.0190273319e-07
1.4206627038e+03 -2.0284584068e-07
1.4313813285e+03 -2.0382615861e-07
1.4420999532e+03 -2.0483389002e-07
1.4528185779e+03 -2.0588175900e-07
1.4635372025e+03 -2.0695300777e-07
1.4742558272e+03 -2.0805730919e-07
1.4849744519e+03 -2.0918330802e-07
1.4956930766e+03 -2.1034189385e-07
1.5064117013e+03 -2.1152201921e-07
1.5171303260e+03 -2.1271795124e-07
1.5278489507e+03 -2.1391049333e-07
1.5385675754e+03 -2.1508435984e-07
1.5492862000e+03 -2.1623326605e-07
1.5600048247e+03 -2.1734739333e-07
1.5707234494e+03 -2.1843533029e-07
1.5814420741e+03 -2.1949223552e-07
1.5921606988e+03 -2.2053390646e-07
1.6028793235e+03 -2.2155445453e-07
1.6135979482e+03 -2.2256447594e-07
1.6243165729e+03 -2.2355715124e-07
1.6350351976e+03 -2.2454523166e-07
1.6457538222e+03 -2.2552912934e-07
1.6564724469e+03 -2.2652165436e-07
1.6671910716e+03 -2.2751561051e-07
1.6779096963e+03 -2.2851090839e-07
1.6886283210e+03 -2.2948792055e-07
1.6993469457e+03 -2.3043811099e-07
1.7100655704e+03 -2.3134774662e-07
1.7207841951e+03 -2.3222551459e-07
1.7315028197e+03 -2.3309002577e-07
1.7422214444e+03 -2.3396378089e-07
1.7529400691e+03 -2.3486950817e-07
1.7636586938e+03 -2.3580462748e-07
1.7743773185e+03 -2.3677391759e-07
1.7850959432e+03 -2.3774936896e-07
1.7958145679e+03 -2.3873463282e-07
1.8065331926e+03 -2.3969600546e-07
1.8172518173e+03 -2.4065508620e-07
1.8279704419e+03 -2.4158065187e-07
1.8386890666e+03 -2.4251755645e-07
1.8494076913e+03 -2.4343180178e-07
1.8601263160e+03 -2.4438228344e-07
1.8708449407e+03 -2.4531101358e-07
1.8815635654e+03 -2.4626890416e-07
1.8922821901e+03 -2.4716800917e-07
1.9030008148e+03 -2.4806418329e-07
1.9137194394e+03 -2.4886808834e-07
1.9244380641e+03 -2.4965867213e-07
1.9351566888e+03 -2.5036111462e-07
1.9458753135e+03 -2.5108101151e-07
1.9565939382e+03 -2.5175380818e-07
1.9673125629e+03 -2.5249649044e-07
1.9780311876e+03 -2.5323614135e-07
1.9887498123e+03 -2.5407965209e-07
1.9994684369e+03 -2.5493100368e-07
2.0101870616e+03 -2.5587101649e-07
2.0209056863e+03 -2.5678741327e-07
2.0316243110e+03 -2.5774082796e-07
2.0423429357e+03 -2.5862978667e-07
2.0530615604e+03 -2.5949657777e-07
2.0637801851e+03 -2.6027965598e-07
2.0744988098e+03 -2.6099296952e-07
2.0852174345e+03 -2.6163651656e-07
2.0959360591e+03 -2.6217215929e-07
2.1066546838e+03 -2.6268003896e-07
2.1173733085e+03 -2.6304998185e-07
2.1280919332e+03 -2.6344910581e-07
2.1388105579e+03 -2.6367395231e-07
2.1495291826e+03 -2.6396704830e-07
2.1602478073e+03 -2.6403175656e-07
2.1709664320e+03 -2.6418296848e-07
2.1816850566e+03 -2.6407885456e-07
2.1924036813e+03 -2.6410052024e-07
2.2031223060e+03 -2.6389704145e-07
2.2138409307e+03 -2.6385406349e-07
2.2245595554e+03 -2.6361634085e-07
2.2352781801e+03 -2.6351239434e-07
2.2459968048e+03 -2.6323184822e-07
2.2567154295e+03 -2.6304832540e-07
2.2674340542e+03 -2.6277125961e-07
2.2781526788e+03 -2.6259799841e-07
2.2888713035e+03 -2.6247496992e-07
2.2995899282e+03 -2.6246683099e-07
2.3103085529e+03 -2.6266230451e-07
2.3210271776e+03 -2.6295414107e-07
2.3317458023e+03 -2.6357027350e-07
2.3424644270e+03 -2.6420219557e-07
2.3531830517e+03 -2.6520653637e-07
2.3639016763e+03 -2.6606929507e-07
2.3746203010e+03 -2.6727823718e-07
2.3853389257e+03 -2.6814661587e-07
2.3960575504e+03 -2.6932097587e-07
2.4067761751e+03 -2.6998216264e-07
2.4174947998e+03 -2.7093855258e-07
2.4282134245e+03 -2.7123665970e-07
2.4389320492e+03 -2.7184550400e-07
2.4496506739e+03 -2.7169147247e-07
2.4603692985e+03 -2.7193557670e-07
2.4710879232e+03 -2.7138797500e-07
2.4818065479e+03 -2.7140794416e-07
2.4925251726e+03 -2.7064794812e-07
2.5032437973e+03 -2.7065171768e-07
2.5139624220e+03 -2.6988295478e-07
2.5246810467e+03 -2.7006334385e-07
2.5353996714e+03 -2.6947064563e-07
2.5461182960e+03 -2.6998681089e-07
2.5568369207e+03 -2.6978001226e-07
2.5675555454e+03 -2.7081514922e-07
2.5782741701e+03 -2.7132597349e-07
2.5889927948e+03 -2.7315133699e-07
2.5997114195e+03 -2.7494646118e-07
2.6104300442e+03 -2.7803542397e-07
2.6211486689e+03 -2.8207161684e-07
2.6318672935e+03 -2.8724707259e-07
2.6425859182e+03 -2.9493748565e-07
2.6533045429e+03 -3.0335991250e-07
2.6640231676e+03 -3.1619209131e-07
2.6747417923e+03 -3.2875697082e-07
2.6854604170e+03 -3.4704461477e-07
2.6961790417e+03 -3.6305884176e-07
2.7068976664e+03 -3.8425539349e-07
2.7176162911e+03 -4.0038651948e-07
2.7283349157e+03 -4.1860815380e-07
2.7390535404e+03 -4.2979008769e-07
2.7497721651e+03 -4.3863639770e-07
2.7604907898e+03 -4.5278177072e-07
