# Turbulent kinetic energy budget term: D (viscous diffusion)
# Definition: D = \partial_{x_j} (\overline{\sigma_{ij}' u_i''})
# Columns: y_plus    D^+
3.9100267708e-01 2.0994443467e-01
1.1669246953e+00 1.8187399915e-01
1.9435303622e+00 1.5108279815e-01
2.7210037404e+00 1.1174813477e-01
3.4995481111e+00 6.4087872230e-02
4.2793829765e+00 1.5995141118e-02
5.0607410474e+00 -2.4922591024e-02
5.8438654524e+00 -5.4452979789e-02
6.6290073199e+00 -7.2041126542e-02
7.4164238012e+00 -7.9460481372e-02
8.2063765381e+00 -7.9346296385e-02
8.9991305383e+00 -7.4364691253e-02
9.7949533913e+00 -6.6748364815e-02
1.0594114757e+01 -5.8134868364e-02
1.1396886058e+01 -4.9529153488e-02
1.2203540314e+01 -4.1463137746e-02
1.3014352078e+01 -3.4174809114e-02
1.3829597436e+01 -2.7774679436e-02
1.4649554046e+01 -2.2300120619e-02
1.5474501205e+01 -1.7735243907e-02
1.6304719923e+01 -1.3991033194e-02
1.7140493017e+01 -1.0934078066e-02
1.7982105198e+01 -8.4318673610e-03
1.8829843169e+01 -6.4045452259e-03
1.9683995721e+01 -4.8115483495e-03
2.0544853828e+01 -3.6139107708e-03
2.1412710751e+01 -2.7351852198e-03
2.2287862134e+01 -2.0784565517e-03
2.3170606107e+01 -1.5597459631e-03
2.4061243385e+01 -1.1248736341e-03
2.4960077373e+01 -7.3066101530e-04
2.5867414268e+01 -3.5413565455e-04
2.6783563163e+01 -8.2407883698e-06
2.7708836155e+01 2.6997128987e-04
2.8643548447e+01 4.6399380136e-04
2.9588018458e+01 5.9713435729e-04
3.0542567932e+01 7.1041000057e-04
3.1507522046e+01 8.1836985686e-04
3.2483209521e+01 9.0613237969e-04
3.3469962736e+01 9.5422554024e-04
3.4468117838e+01 9.5225136162e-04
3.5478014859e+01 8.9998361701e-04
3.6499997830e+01 8.1115934441e-04
3.7534414901e+01 7.0466586216e-04
3.8581618456e+01 6.0482718089e-04
3.9641965236e+01 5.4198804446e-04
4.0715816460e+01 5.2920069154e-04
4.1803537945e+01 5.4868849899e-04
4.2905500235e+01 5.7463385782e-04
4.4022078725e+01 5.9172908062e-04
4.5153653789e+01 5.8718914612e-04
4.6300610910e+01 5.4976714174e-04
4.7463340810e+01 4.8881007562e-04
4.8642239585e+01 4.2594635704e-04
4.9837708839e+01 3.8066157090e-04
5.1050155822e+01 3.6560474709e-04
5.2279993564e+01 3.6508254229e-04
5.3527641025e+01 3.4418827367e-04
5.4793523226e+01 2.9395342090e-04
5.6078071405e+01 2.4050346683e-04
5.7381723156e+01 2.1739180219e-04
5.8704922581e+01 2.3517504643e-04
6.0048120441e+01 2.7320518638e-04
6.1411774312e+01 3.0427142326e-04
6.2796348734e+01 3.1906137344e-04
6.4202315379e+01 3.2012420664e-04
6.5630153203e+01 3.0407866489e-04
6.7080348613e+01 2.7224140799e-04
6.8553395635e+01 2.3174566812e-04
7.0049796075e+01 1.9133936015e-04
7.1570059699e+01 1.6407050411e-04
7.3114704399e+01 1.4841494811e-04
7.4684256376e+01 1.3662287296e-04
7.6279250313e+01 1.2083268424e-04
7.7900229560e+01 9.9599009169e-05
7.9547746322e+01 9.5179864695e-05
8.1222361842e+01 1.1062882420e-04
8.2924646595e+01 1.1216829837e-04
8.4655180482e+01 8.3965832208e-05
8.6414553026e+01 4.8144060305e-05
8.8203363577e+01 3.1463433799e-05
9.0022221510e+01 3.8934023714e-05
9.1871746439e+01 5.1907249356e-05
9.3752568424e+01 4.9902850631e-05
9.5665328185e+01 5.0279447202e-05
9.7610677324e+01 6.3054153280e-05
9.9589278544e+01 5.7311279362e-05
1.0160180588e+02 4.2425676168e-05
1.0364894491e+02 3.9834462071e-05
1.0573139302e+02 2.8600430367e-05
1.0784985962e+02 2.2775758825e-05
1.1000506638e+02 4.3424476417e-05
1.1219774750e+02 6.3408815147e-05
1.1442864993e+02 7.2327646914e-05
1.1669853366e+02 7.5438673271e-05
1.1900817195e+02 6.0304100375e-05
1.2135835159e+02 2.6448879785e-05
1.2374987321e+02 3.7799208955e-06
1.2618355149e+02 1.0149390480e-05
1.2866021550e+02 3.1240734513e-05
1.3118070893e+02 4.6454533763e-05
1.3374589042e+02 5.2381741618e-05
1.3635663383e+02 4.6131890698e-05
1.3901382852e+02 2.2017139895e-05
1.4171837970e+02 1.0510647189e-05
1.4447120871e+02 2.0880514214e-05
1.4727325332e+02 2.5698841948e-05
1.5012546808e+02 1.2703897314e-05
1.5302882462e+02 -2.3431390945e-05
1.5598431200e+02 -5.5117140859e-05
1.5899293705e+02 -5.2358983413e-05
1.6205572468e+02 -3.6311441088e-05
1.6517371825e+02 -2.9548165905e-05
1.6834797995e+02 -2.3881501857e-05
1.7157959112e+02 -1.3664701769e-05
1.7486965264e+02 1.0935999438e-05
1.7821928531e+02 2.7722718630e-05
1.8162963021e+02 1.2773601455e-05
1.8510184912e+02 9.5307481119e-06
1.8863712487e+02 3.3160251983e-05
1.9223666179e+02 4.0246380055e-05
1.9590168612e+02 1.2228759428e-05
1.9963344636e+02 -7.0460401033e-06
2.0343321380e+02 -1.0748479360e-05
2.0730228285e+02 -3.1501085322e-05
2.1124197156e+02 -5.3362566359e-05
2.1525362201e+02 -4.5891515130e-05
2.1933860083e+02 -3.0739958782e-05
2.2349829959e+02 -2.3936911299e-05
2.2773413535e+02 -2.7428275379e-07
2.3204755109e+02 2.4153356222e-05
2.3644001621e+02 1.6528596585e-05
2.4091302705e+02 -1.1912395682e-05
2.4546810739e+02 -2.0774199012e-05
2.5010680897e+02 -1.3190332245e-05
2.5483071201e+02 4.2787605280e-06
2.5964142574e+02 2.0271747613e-05
2.6454058900e+02 1.0004302635e-05
2.6952987074e+02 6.5203000646e-06
2.7461097059e+02 1.1746968482e-05
2.7978561950e+02 9.4392475299e-06
2.8505558025e+02 1.5821830466e-05
2.9042264812e+02 1.2233069423e-05
2.9588865145e+02 1.0737988972e-05
3.0145545230e+02 2.0917659802e-05
3.0712494704e+02 1.3572490535e-05
3.1289906706e+02 -2.1620988729e-06
3.1877977936e+02 3.4050182861e-06
3.2476908727e+02 1.7656411929e-05
3.3086903110e+02 1.9515419735e-05
3.3708168886e+02 1.7571844216e-05
3.4340917693e+02 1.6373965106e-05
3.4985365079e+02 1.5616659105e-05
3.5641730571e+02 1.9701896698e-05
3.6310237742e+02 2.4398165762e-05
3.6991114271e+02 2.4898048465e-05
3.7684591986e+02 2.5998076226e-05
3.8390906882e+02 2.8160867124e-05
3.9110299071e+02 3.0194531947e-05
3.9843012636e+02 3.2048831185e-05
4.0589295306e+02 2.8755908044e-05
4.1349397829e+02 2.9794560972e-05
4.2123572889e+02 3.9770946572e-05
4.2912073304e+02 4.7061454482e-05
4.3715149217e+02 4.6906748588e-05
4.4533043852e+02 4.7724734198e-05
4.5365987429e+02 4.7922476307e-05
4.6214188770e+02 4.5765028156e-05
4.7077824235e+02 4.5553627535e-05
4.7957023817e+02 4.3833976295e-05
4.8851854519e+02 3.9449299988e-05
4.9762301594e+02 3.5331391520e-05
5.0688248733e+02 3.1990778857e-05
5.1629458829e+02 2.9345502865e-05
5.2585557360e+02 2.6763101735e-05
5.3556020708e+02 2.2161165163e-05
5.4540171575e+02 1.8997791992e-05
5.5537183282e+02 1.6134335260e-05
5.6546093828e+02 1.2308557264e-05
5.7565829575e+02 9.7723235295e-06
5.8595237151e+02 8.1086169059e-06
5.9633121136e+02 6.6185380621e-06
6.0678284256e+02 5.6392611998e-06
6.1729566514e+02 4.8777912877e-06
6.2785879892e+02 3.8761260064e-06
6.3846235889e+02 3.0347912952e-06
6.4909764242e+02 2.3822100055e-06
6.5975722295e+02 1.8490112478e-06
6.7043495588e+02 1.5272747866e-06
6.8112591136e+02 1.2269656899e-06
6.9182625336e+02 1.0633949843e-06
7.0253308669e+02 8.9243449435e-07
7.1324429176e+02 6.7490410953e-07
7.2395836319e+02 5.2474100239e-07
7.3467426374e+02 4.4186552255e-07
7.4539130004e+02 3.9937231331e-07
7.5610902239e+02 3.4790727360e-07
7.6682714778e+02 2.8937805480e-07
7.7754550345e+02 2.4508088304e-07
7.8826398703e+02 2.1135968793e-07
7.9898253968e+02 1.8385870656e-07
8.0970112858e+02 1.6065162414e-07
8.2041973597e+02 1.4101374514e-07
8.3113835253e+02 1.2417226465e-07
8.4185697350e+02 1.0971642029e-07
8.5257559653e+02 9.7265100861e-08
8.6329422051e+02 8.6558355339e-08
8.7401284489e+02 7.7299643142e-08
8.8473146946e+02 6.9102048055e-08
8.9545009410e+02 6.1863399573e-08
9.0616871877e+02 5.5505750951e-08
9.1688734345e+02 4.9942245328e-08
9.2760596814e+02 4.5067841860e-08
9.3832459282e+02 4.0673731613e-08
9.4904321751e+02 3.6744346893e-08
9.5976184220e+02 3.3242178930e-08
9.7048046689e+02 3.0140699983e-08
9.8119909158e+02 2.7397824094e-08
9.9191771626e+02 2.4943874919e-08
1.0026363410e+03 2.2745751608e-08
1.0133549656e+03 2.0806139044e-08
1.0240735903e+03 1.9069844666e-08
1.0347922150e+03 1.7519532934e-08
1.0455108397e+03 1.6105924430e-08
1.0562294644e+03 1.4790736404e-08
1.0669480891e+03 1.3571468377e-08
1.0776667138e+03 1.2401753559e-08
1.0883853385e+03 1.1306549907e-08
1.0991039631e+03 1.0292172041e-08
1.1098225878e+03 9.3795288658e-09
1.1205412125e+03 8.5703260607e-09
1.1312598372e+03 7.8482786164e-09
1.1419784619e+03 7.1925258752e-09
1.1526970866e+03 6.5973189073e-09
1.1634157113e+03 6.0542089612e-09
1.1741343360e+03 5.5940774854e-09
1.1848529607e+03 5.2271379370e-09
1.1955715853e+03 4.9351771437e-09
1.2062902100e+03 4.6663145407e-09
1.2170088347e+03 4.3738836521e-09
1.2277274594e+03 4.0646860306e-09
1.2384460841e+03 3.7790049382e-09
1.2491647088e+03 3.5519167937e-09
1.2598833335e+03 3.3918278826e-09
1.2706019582e+03 3.2797924220e-09
1.2813205828e+03 3.2008797763e-09
1.2920392075e+03 3.1321228023e-09
1.3027578322e+03 3.0698846770e-09
1.3134764569e+03 3.0142210813e-09
1.3241950816e+03 2.9773223568e-09
1.3349137063e+03 2.9535348088e-09
1.3456323310e+03 2.9235200384e-09
1.3563509557e+03 2.8545059945e-09
1.3670695803e+03 2.7347320781e-09
1.3777882050e+03 2.5596509595e-09
1.3885068297e+03 2.3422113368e-09
1.3992254544e+03 2.0879527162e-09
1.4099440791e+03 1.8105508072e-09
1.4206627038e+03 1.5239811906e-09
1.4313813285e+03 1.2446297483e-09
1.4420999532e+03 9.9265719745e-10
1.4528185779e+03 7.9008289521e-10
1.4635372025e+03 6.5257351090e-10
1.4742558272e+03 5.8302905714e-10
1.4849744519e+03 5.6726951971e-10
1.4956930766e+03 5.9601707101e-10
1.5064117013e+03 6.6283554567e-10
1.5171303260e+03 7.7527311391e-10
1.5278489507e+03 9.1665516477e-10
1.5385675754e+03 1.0644220358e-09
1.5492862000e+03 1.1737369023e-09
1.5600048247e+03 1.2289203382e-09
1.5707234494e+03 1.2169284059e-09
1.5814420741e+03 1.1552654218e-09
1.5921606988e+03 1.0520717560e-09
1.6028793235e+03 9.3075136324e-10
1.6135979482e+03 8.0232094060e-10
1.6243165729e+03 6.9001109053e-10
1.6350351976e+03 6.0442067076e-10
1.6457538222e+03 5.6587508753e-10
1.6564724469e+03 5.7257361301e-10
1.6671910716e+03 6.2559538648e-10
1.6779096963e+03 6.9780670711e-10
1.6886283210e+03 7.7392630296e-10
1.6993469457e+03 8.0478792208e-10
1.7100655704e+03 7.8331784124e-10
1.7207841951e+03 6.8215644272e-10
1.7315028197e+03 5.5791417602e-10
1.7422214444e+03 4.2165516089e-10
1.7529400691e+03 3.4326968765e-10
1.7636586938e+03 3.0527015787e-10
1.7743773185e+03 3.3254735437e-10
1.7850959432e+03 3.7356720869e-10
1.7958145679e+03 4.2142705896e-10
1.8065331926e+03 4.2744702505e-10
1.8172518173e+03 3.9071204090e-10
1.8279704419e+03 3.0778130705e-10
1.8386890666e+03 2.0605992073e-10
1.8494076913e+03 1.1375204690e-10
1.8601263160e+03 3.0527898613e-11
1.8708449407e+03 -4.9067330744e-11
1.8815635654e+03 -1.8170458276e-10
1.8922821901e+03 -3.5783199814e-10
1.9030008148e+03 -6.1035759047e-10
1.9137194394e+03 -8.5555651569e-10
1.9244380641e+03 -1.1049954134e-09
1.9351566888e+03 -1.2503655492e-09
1.9458753135e+03 -1.3290980426e-09
1.9565939382e+03 -1.2627370592e-09
1.9673125629e+03 -1.1339124673e-09
1.9780311876e+03 -8.9605515353e-10
1.9887498123e+03 -6.4865713406e-10
1.9994684369e+03 -3.4503975504e-10
2.0101870616e+03 -7.9636413598e-11
2.0209056863e+03 2.0758762833e-10
2.0316243110e+03 4.3160747499e-10
2.0423429357e+03 6.6867817692e-10
2.0530615604e+03 8.3403456271e-10
2.0637801851e+03 1.0129753230e-09
2.0744988098e+03 1.1099791164e-09
2.0852174345e+03 1.2281468275e-09
2.0959360591e+03 1.2748827134e-09
2.1066546838e+03 1.3736980540e-09
2.1173733085e+03 1.4338769188e-09
2.1280919332e+03 1.5713184911e-09
2.1388105579e+03 1.6897215484e-09
2.1495291826e+03 1.8579687118e-09
2.1602478073e+03 1.9707917150e-09
2.1709664320e+03 2.0802952232e-09
2.1816850566e+03 2.1457269907e-09
2.1924036813e+03 2.2555102956e-09
2.2031223060e+03 2.4073686048e-09
2.2138409307e+03 2.6624055831e-09
2.2245595554e+03 2.9770811216e-09
2.2352781801e+03 3.3708307146e-09
2.2459968048e+03 3.7673142517e-09
2.2567154295e+03 4.1810557169e-09
2.2674340542e+03 4.5178048977e-09
2.2781526788e+03 4.7968878581e-09
2.2888713035e+03 4.9235927059e-09
2.2995899282e+03 4.9400415771e-09
2.3103085529e+03 4.7694855233e-09
2.3210271776e+03 4.4721318073e-09
2.3317458023e+03 3.9838427060e-09
2.3424644270e+03 3.3754818182e-09
2.3531830517e+03 2.6084338488e-09
2.3639016763e+03 1.7777490757e-09
2.3746203010e+03 8.8989754523e-10
2.3853389257e+03 6.2787242267e-11
2.3960575504e+03 -6.6641204053e-10
2.4067761751e+03 -1.2007055290e-09
2.4174947998e+03 -1.5179493768e-09
2.4282134245e+03 -1.5970522992e-09
2.4389320492e+03 -1.4310471113e-09
2.4496506739e+03 -1.0694099647e-09
2.4603692985e+03 -4.7262171498e-10
2.4710879232e+03 2.4303383574e-10
2.4818065479e+03 1.1867764233e-09
2.4925251726e+03 2.1623469169e-09
2.5032437973e+03 3.3726906859e-09
2.5139624220e+03 4.5233439673e-09
2.5246810467e+03 5.9175977368e-09
2.5353996714e+03 7.1506652172e-09
2.5461182960e+03 8.6495156084e-09
2.5568369207e+03 9.9126179510e-09
2.5675555454e+03 1.1490267508e-08
2.5782741701e+03 1.2746102239e-08
2.5889927948e+03 1.4340808103e-08
2.5997114195e+03 1.5476223164e-08
2.6104300442e+03 1.6919985298e-08
2.6211486689e+03 1.7644598001e-08
2.6318672935e+03 1.8483472402e-08
2.6425859182e+03 1.8050511998e-08
2.6533045429e+03 1.7172187059e-08
2.6640231676e+03 1.4002440135e-08
2.6747417923e+03 9.4622458105e-09
2.6854604170e+03 1.4898851319e-09
2.6961790417e+03 -8.3394455800e-09
2.7068976664e+03 -2.1600767001e-08
2.7176162911e+03 -3.5267868861e-08
2.7283349157e+03 -5.0145288379e-08
2.7390535404e+03 -7.5826070540e-08
2.7497721651e+03 -5.7107208727e-08
2.7604907898e+03 -5.7019747163e-08
