# Turbulent kinetic energy budget term: P (production)
# Definition: P = -\bar{\rho} \widetilde{u_i'' u_j''} (\partial \tilde{u}_i / \partial x_j)
# Columns: y_plus    P^+
3.9832992606e-01 1.1839026907e-04
1.1887924427e+00 2.0536237571e-03
1.9799514194e+00 8.7786891966e-03
2.7719943680e+00 2.2789241475e-02
3.5651283791e+00 4.5004544439e-02
4.3595770683e+00 7.4205158895e-02
5.1555775073e+00 1.0770894883e-01
5.9533773809e+00 1.4197767728e-01
6.7532325235e+00 1.7391050619e-01
7.5554049053e+00 2.0108426186e-01
8.3601610713e+00 2.2230170560e-01
9.1677709952e+00 2.3712447557e-01
9.9785072812e+00 2.4594881917e-01
1.0792644643e+01 2.4942771741e-01
1.1610459588e+01 2.4853590501e-01
1.2432230253e+01 2.4415788349e-01
1.3258236337e+01 2.3723086272e-01
1.4088759099e+01 2.2848348381e-01
1.4924081400e+01 2.1860838958e-01
1.5764487770e+01 2.0808943134e-01
1.6610264487e+01 1.9736354368e-01
1.7461699667e+01 1.8669534532e-01
1.8319083357e+01 1.7631619828e-01
1.9182707631e+01 1.6633289500e-01
2.0052866693e+01 1.5684557032e-01
2.0929856971e+01 1.4787660823e-01
2.1813977219e+01 1.3946180960e-01
2.2705528623e+01 1.3158614555e-01
2.3604814899e+01 1.2424762005e-01
2.4512142398e+01 1.1740008613e-01
2.5427820210e+01 1.1100772479e-01
2.6352160271e+01 1.0500997703e-01
2.7285477466e+01 9.9375182069e-02
2.8228089740e+01 9.4072166345e-02
2.9180318202e+01 8.9103058773e-02
3.0142487241e+01 8.4466657547e-02
3.1114924627e+01 8.0175104999e-02
3.2097961633e+01 7.6220274470e-02
3.3091933139e+01 7.2588918924e-02
3.4097177753e+01 6.9242935090e-02
3.5114037921e+01 6.6145312081e-02
3.6142860047e+01 6.3256601470e-02
3.7183994610e+01 6.0556474404e-02
3.8237796283e+01 5.8028729599e-02
3.9304624055e+01 5.5668625968e-02
4.0384841351e+01 5.3469805608e-02
4.1478816159e+01 5.1431793889e-02
4.2586921152e+01 4.9545730261e-02
4.3709533817e+01 4.7798980457e-02
4.4847036585e+01 4.6170781402e-02
4.5999816957e+01 4.4646709729e-02
4.7168267640e+01 4.3216802667e-02
4.8352786679e+01 4.1880183690e-02
4.9553777591e+01 4.0635975712e-02
5.0771649508e+01 3.9485112178e-02
5.2006817308e+01 3.8423203149e-02
5.3259701767e+01 3.7442956459e-02
5.4530729690e+01 3.6529619320e-02
5.5820334067e+01 3.5663707525e-02
5.7128954215e+01 3.4818685811e-02
5.8457035929e+01 3.3972592932e-02
5.9805031633e+01 3.3118346780e-02
6.1173400536e+01 3.2269103912e-02
6.2562608788e+01 3.1443301141e-02
6.3973129635e+01 3.0655635153e-02
6.5405443587e+01 2.9915509274e-02
6.6860038576e+01 2.9230941515e-02
6.8337410125e+01 2.8601251745e-02
6.9838061516e+01 2.8014598065e-02
7.1362503960e+01 2.7452792938e-02
7.2911256775e+01 2.6905777839e-02
7.4484847559e+01 2.6375469475e-02
7.6083812373e+01 2.5866594627e-02
7.7708695921e+01 2.5373110924e-02
7.9360051734e+01 2.4883217505e-02
8.1038442365e+01 2.4393746324e-02
8.2744439576e+01 2.3913953747e-02
8.4478624530e+01 2.3449375777e-02
8.6241587997e+01 2.2996896237e-02
8.8033930547e+01 2.2554133925e-02
8.9856262762e+01 2.2125778376e-02
9.1709205436e+01 2.1719446764e-02
9.3593389795e+01 2.1341148650e-02
9.5509457704e+01 2.0988501558e-02
9.7458061892e+01 2.0645775663e-02
9.9439866172e+01 2.0289455622e-02
1.0145554566e+02 1.9909143904e-02
1.0350578703e+02 1.9516327361e-02
1.0559128871e+02 1.9129811083e-02
1.0771276115e+02 1.8754420202e-02
1.0987092704e+02 1.8389649540e-02
1.1206652160e+02 1.8045382765e-02
1.1430029277e+02 1.7730339433e-02
1.1657300151e+02 1.7438416925e-02
1.1888542205e+02 1.7163380077e-02
1.2123834212e+02 1.6904915048e-02
1.2363256328e+02 1.6653097642e-02
1.2606890115e+02 1.6395461001e-02
1.2854818569e+02 1.6140731753e-02
1.3107126148e+02 1.5900974557e-02
1.3363898805e+02 1.5665487908e-02
1.3625224012e+02 1.5405668891e-02
1.3891190791e+02 1.5097112504e-02
1.4161889747e+02 1.4748682534e-02
1.4437413097e+02 1.4397695452e-02
1.4717854699e+02 1.4070043752e-02
1.5003310091e+02 1.3774983591e-02
1.5293876514e+02 1.3507962673e-02
1.5589652954e+02 1.3248454022e-02
1.5890740169e+02 1.2966109758e-02
1.6197240728e+02 1.2647587784e-02
1.6509259044e+02 1.2316504922e-02
1.6826901409e+02 1.2012688518e-02
1.7150276031e+02 1.1748827077e-02
1.7479493070e+02 1.1500794850e-02
1.7814664679e+02 1.1233392059e-02
1.8155905037e+02 1.0936883035e-02
1.8503330390e+02 1.0627289566e-02
1.8857059093e+02 1.0313188075e-02
1.9217211647e+02 1.0004805539e-02
1.9583910742e+02 9.7158823270e-03
1.9957281298e+02 9.4457226681e-03
2.0337450507e+02 9.1808388827e-03
2.0724547877e+02 8.9022691556e-03
2.1118705278e+02 8.6124942179e-03
2.1520056983e+02 8.3253561152e-03
2.1928739716e+02 8.0597220301e-03
2.2344892701e+02 7.8237532567e-03
2.2768657703e+02 7.5896613521e-03
2.3200179082e+02 7.3486268835e-03
2.3639603841e+02 7.1106626809e-03
2.4087081674e+02 6.8749543349e-03
2.4542765019e+02 6.6432938639e-03
2.5006809109e+02 6.4037191165e-03
2.5479372026e+02 6.1531376278e-03
2.5960614754e+02 5.8896237140e-03
2.6450701231e+02 5.6188347668e-03
2.6949798412e+02 5.3701737421e-03
2.7458076319e+02 5.1459964040e-03
2.7975708102e+02 4.9162061758e-03
2.8502870098e+02 4.6692011268e-03
2.9039741890e+02 4.4070294493e-03
2.9586506368e+02 4.1508897530e-03
3.0143349794e+02 3.9275610682e-03
3.0710461862e+02 3.7146131792e-03
3.1288035765e+02 3.4975933516e-03
3.1876268259e+02 3.2908197982e-03
3.2475359732e+02 3.0856906679e-03
3.3085514269e+02 2.8778268051e-03
3.3706939727e+02 2.6605575540e-03
3.4339847799e+02 2.4385256144e-03
3.4984454091e+02 2.2236217596e-03
3.5640978188e+02 2.0199206872e-03
3.6309643733e+02 1.8267477446e-03
3.6990678487e+02 1.6379431474e-03
3.7684314396e+02 1.4538028504e-03
3.8390787633e+02 1.2782010144e-03
3.9110338615e+02 1.1120078048e-03
3.9843211953e+02 9.5831642565e-04
4.0589656306e+02 8.1535296286e-04
4.1349924044e+02 6.8112346911e-04
4.2124270614e+02 5.5857332311e-04
4.2912953435e+02 4.4983204594e-04
4.3716230063e+02 3.5666244602e-04
4.4534355328e+02 2.7781690288e-04
4.5367577013e+02 2.1091080429e-04
4.6216129653e+02 1.5594139135e-04
4.7080225980e+02 1.1222329359e-04
4.7960045663e+02 7.8548456117e-05
4.8855721127e+02 5.3818813671e-05
4.9767320634e+02 3.6340431883e-05
5.0694829158e+02 2.4073936186e-05
5.1638128212e+02 1.5484719076e-05
5.2596976245e+02 9.5386187004e-06
5.3570991718e+02 5.6593930323e-06
5.4559641198e+02 3.3634747328e-06
5.5562234697e+02 2.0542297323e-06
5.6577930043e+02 1.3059316863e-06
5.7605747209e+02 8.7966284802e-07
5.8644592435e+02 6.2785800366e-07
5.9693290738e+02 4.6073914444e-07
6.0750624294e+02 3.6470142859e-07
6.1815373393e+02 3.1820729535e-07
6.2886356302e+02 2.8423418533e-07
6.3962464611e+02 2.4765443205e-07
6.5042691296e+02 2.1184824447e-07
6.6126149787e+02 1.8857846352e-07
6.7212083508e+02 1.7305705798e-07
6.8299866488e+02 1.5993714332e-07
6.9388996500e+02 1.4808979244e-07
7.0479082754e+02 1.3627617052e-07
7.1569830307e+02 1.2568223376e-07
7.2661023225e+02 1.1729937594e-07
7.3752508151e+02 1.0982460443e-07
7.4844179417e+02 1.0185513602e-07
7.5935966386e+02 9.5354219107e-08
7.7027823245e+02 9.0066363134e-08
7.8119721165e+02 8.5360277021e-08
7.9211642543e+02 8.1140659647e-08
8.0303576952e+02 7.7324761377e-08
8.1395518398e+02 7.3840899046e-08
8.2487463536e+02 7.0658855497e-08
8.3579410559e+02 6.7776598044e-08
8.4671358515e+02 6.5184788827e-08
8.5763306920e+02 6.2889528320e-08
8.6855255537e+02 6.0832607731e-08
8.7947204248e+02 5.8970983689e-08
8.9039153002e+02 5.7237071943e-08
9.0131101774e+02 5.5631489332e-08
9.1223050554e+02 5.4141919210e-08
9.2314999336e+02 5.2789946672e-08
9.3406948120e+02 5.1563197567e-08
9.4498896904e+02 5.0463706652e-08
9.5590845688e+02 4.9474734741e-08
9.6682794473e+02 4.8592455933e-08
9.7774743257e+02 4.7813652780e-08
9.8866692042e+02 4.7133645110e-08
9.9958640826e+02 4.6541220353e-08
1.0105058961e+03 4.6011622241e-08
1.0214253840e+03 4.5530138558e-08
1.0323448718e+03 4.5076530113e-08
1.0432643596e+03 4.4652071982e-08
1.0541838475e+03 4.4241323497e-08
1.0651033353e+03 4.3841849653e-08
1.0760228232e+03 4.3439258905e-08
1.0869423110e+03 4.3034937912e-08
1.0978617989e+03 4.2630685463e-08
1.1087812867e+03 4.2232810558e-08
1.1197007746e+03 4.1846795114e-08
1.1306202624e+03 4.1480232383e-08
1.1415397502e+03 4.1142541465e-08
1.1524592381e+03 4.0841217774e-08
1.1633787259e+03 4.0581882746e-08
1.1742982138e+03 4.0367123072e-08
1.1852177016e+03 4.0199040753e-08
1.1961371895e+03 4.0074635772e-08
1.2070566773e+03 3.9988920409e-08
1.2179761652e+03 3.9934866884e-08
1.2288956530e+03 3.9905651278e-08
1.2398151408e+03 3.9895643650e-08
1.2507346287e+03 3.9897753250e-08
1.2616541165e+03 3.9908742764e-08
1.2725736044e+03 3.9921409651e-08
1.2834930922e+03 3.9933583267e-08
1.2944125801e+03 3.9935102918e-08
1.3053320679e+03 3.9924858136e-08
1.3162515558e+03 3.9892695250e-08
1.3271710436e+03 3.9842702724e-08
1.3380905314e+03 3.9770050673e-08
1.3490100193e+03 3.9688710045e-08
1.3599295071e+03 3.9601322828e-08
1.3708489950e+03 3.9524363773e-08
1.3817684828e+03 3.9456387387e-08
1.3926879707e+03 3.9406970841e-08
1.4036074585e+03 3.9369715319e-08
1.4145269464e+03 3.9349909003e-08
1.4254464342e+03 3.9338325840e-08
1.4363659220e+03 3.9338220076e-08
1.4472854099e+03 3.9341908505e-08
1.4582048977e+03 3.9354403916e-08
1.4691243856e+03 3.9369214088e-08
1.4800438734e+03 3.9389091267e-08
1.4909633613e+03 3.9406645753e-08
1.5018828491e+03 3.9424705738e-08
1.5128023370e+03 3.9439261484e-08
1.5237218248e+03 3.9456624311e-08
1.5346413126e+03 3.9476239123e-08
1.5455608005e+03 3.9505893450e-08
1.5564802883e+03 3.9542700108e-08
1.5673997762e+03 3.9590005519e-08
1.5783192640e+03 3.9638552134e-08
1.5892387519e+03 3.9689181083e-08
1.6001582397e+03 3.9731336005e-08
1.6110777276e+03 3.9768509040e-08
1.6219972154e+03 3.9791867026e-08
1.6329167032e+03 3.9808843778e-08
1.6438361911e+03 3.9812622998e-08
1.6547556789e+03 3.9814667403e-08
1.6656751668e+03 3.9808686105e-08
1.6765946546e+03 3.9809433140e-08
1.6875141425e+03 3.9807882391e-08
1.6984336303e+03 3.9818485830e-08
1.7093531182e+03 3.9824192591e-08
1.7202726060e+03 3.9838122325e-08
1.7311920938e+03 3.9839767459e-08
1.7421115817e+03 3.9849060685e-08
1.7530310695e+03 3.9847203078e-08
1.7639505574e+03 3.9858603035e-08
1.7748700452e+03 3.9859236922e-08
1.7857895331e+03 3.9871443282e-08
1.7967090209e+03 3.9865290669e-08
1.8076285088e+03 3.9864765148e-08
1.8185479966e+03 3.9840294169e-08
1.8294674844e+03 3.9821638781e-08
1.8403869723e+03 3.9781383030e-08
1.8513064601e+03 3.9752897804e-08
1.8622259480e+03 3.9707200649e-08
1.8731454358e+03 3.9676513335e-08
1.8840649237e+03 3.9628265820e-08
1.8949844115e+03 3.9594176241e-08
1.9059038994e+03 3.9541533097e-08
1.9168233872e+03 3.9504960039e-08
1.9277428750e+03 3.9452994890e-08
1.9386623629e+03 3.9422014035e-08
1.9495818507e+03 3.9378472139e-08
1.9605013386e+03 3.9358365954e-08
1.9714208264e+03 3.9325776355e-08
1.9823403143e+03 3.9317598602e-08
1.9932598021e+03 3.9295961613e-08
2.0041792900e+03 3.9296983190e-08
2.0150987778e+03 3.9279834822e-08
2.0260182656e+03 3.9280101929e-08
2.0369377535e+03 3.9257571666e-08
2.0478572413e+03 3.9250167551e-08
2.0587767292e+03 3.9219656933e-08
2.0696962170e+03 3.9204167983e-08
2.0806157049e+03 3.9164704686e-08
2.0915351927e+03 3.9137606449e-08
2.1024546806e+03 3.9083647114e-08
2.1133741684e+03 3.9039226140e-08
2.1242936562e+03 3.8967969716e-08
2.1352131441e+03 3.8909219150e-08
2.1461326319e+03 3.8830911316e-08
2.1570521198e+03 3.8773796274e-08
2.1679716076e+03 3.8706256356e-08
2.1788910955e+03 3.8666097445e-08
2.1898105833e+03 3.8620620687e-08
2.2007300712e+03 3.8605031885e-08
2.2116495590e+03 3.8588029458e-08
2.2225690468e+03 3.8603160795e-08
2.2334885347e+03 3.8620293307e-08
2.2444080225e+03 3.8669257061e-08
2.2553275104e+03 3.8718587112e-08
2.2662469982e+03 3.8794588828e-08
2.2771664861e+03 3.8866739828e-08
2.2880859739e+03 3.8964113156e-08
2.2990054618e+03 3.9061336723e-08
2.3099249496e+03 3.9194046642e-08
2.3208444374e+03 3.9340279610e-08
2.3317639253e+03 3.9540115767e-08
2.3426834131e+03 3.9769036125e-08
2.3536029010e+03 4.0067467019e-08
2.3645223888e+03 4.0404121716e-08
2.3754418767e+03 4.0819911531e-08
2.3863613645e+03 4.1277649727e-08
2.3972808524e+03 4.1821327167e-08
2.4082003402e+03 4.2407039587e-08
2.4191198280e+03 4.3080812266e-08
2.4300393159e+03 4.3788347143e-08
2.4409588037e+03 4.4577334542e-08
2.4518782916e+03 4.5384131985e-08
2.4627977794e+03 4.6261868652e-08
2.4737172673e+03 4.7141530011e-08
2.4846367551e+03 4.8082586292e-08
2.4955562430e+03 4.9013017594e-08
2.5064757308e+03 4.9996777172e-08
2.5173952187e+03 5.0964090423e-08
2.5283147065e+03 5.1982583477e-08
2.5392341943e+03 5.2992788132e-08
2.5501536822e+03 5.4063348770e-08
2.5610731700e+03 5.5150826891e-08
2.5719926579e+03 5.6316870156e-08
2.5829121457e+03 5.7534972094e-08
2.5938316336e+03 5.8848703944e-08
2.6047511214e+03 6.0250342129e-08
2.6156706093e+03 6.1758972790e-08
2.6265900971e+03 6.3392084629e-08
2.6375095849e+03 6.5140019816e-08
2.6484290728e+03 6.7048122231e-08
2.6593485606e+03 6.9070729936e-08
2.6702680485e+03 7.1277803203e-08
2.6811875363e+03 7.3583564314e-08
2.6921070242e+03 7.6075684046e-08
2.7030265120e+03 7.8629821682e-08
2.7139459999e+03 8.1333530816e-08
2.7248654877e+03 8.4031084303e-08
2.7357849755e+03 8.6779066878e-08
2.7467044634e+03 8.9413490573e-08
2.7576239512e+03 9.1920877749e-08
2.7685434391e+03 9.4176901381e-08
2.7794629269e+03 9.6060069087e-08
2.7903824148e+03 9.7551215793e-08
2.8013019026e+03 9.8463809260e-08
2.8122213905e+03 9.8995201918e-08
