# Turbulent kinetic energy budget term: TT (triple-correlation transport)
# Definition: TT = -\partial_{x_j} [ 0.5 \bar{\rho} \widetilde{u_i'' u_i'' u_j''} ]
# Columns: y_plus    TT^+
3.9832992606e-01 -1.6706521312e-03
1.1887924427e+00 1.6899677378e-03
1.9799514194e+00 1.0587274763e-02
2.7719943680e+00 2.5057943001e-02
3.5651283791e+00 3.9959964446e-02
4.3595770683e+00 4.9625611733e-02
5.1555775073e+00 5.0029253095e-02
5.9533773809e+00 4.0791029496e-02
6.7532325235e+00 2.4207721831e-02
7.5554049053e+00 3.7907409855e-03
8.3601610713e+00 -1.7016068023e-02
9.1677709952e+00 -3.5676319734e-02
9.9785072812e+00 -5.0662747264e-02
1.0792644643e+01 -6.1549195417e-02
1.1610459588e+01 -6.8470720691e-02
1.2432230253e+01 -7.1990946456e-02
1.3258236337e+01 -7.2659092974e-02
1.4088759099e+01 -7.1109721120e-02
1.4924081400e+01 -6.7869846132e-02
1.5764487770e+01 -6.3513539104e-02
1.6610264487e+01 -5.8492860919e-02
1.7461699667e+01 -5.3212645718e-02
1.8319083357e+01 -4.7908278199e-02
1.9182707631e+01 -4.2738736288e-02
2.0052866693e+01 -3.7778127888e-02
2.0929856971e+01 -3.3096822467e-02
2.1813977219e+01 -2.8742640973e-02
2.2705528623e+01 -2.4755634507e-02
2.3604814899e+01 -2.1146430983e-02
2.4512142398e+01 -1.7896859860e-02
2.5427820210e+01 -1.4976435827e-02
2.6352160271e+01 -1.2341272710e-02
2.7285477466e+01 -9.9580680633e-03
2.8228089740e+01 -7.8014862193e-03
2.9180318202e+01 -5.8758510084e-03
3.0142487241e+01 -4.1834957759e-03
3.1114924627e+01 -2.7372912629e-03
3.2097961633e+01 -1.5348303257e-03
3.3091933139e+01 -5.5855739665e-04
3.4097177753e+01 2.5764171127e-04
3.5114037921e+01 9.7563071352e-04
3.6142860047e+01 1.6369996691e-03
3.7183994610e+01 2.2484161702e-03
3.8237796283e+01 2.8182594806e-03
3.9304624055e+01 3.3300384498e-03
4.0384841351e+01 3.7479204871e-03
4.1478816159e+01 4.0369728980e-03
4.2586921152e+01 4.2143938641e-03
4.3709533817e+01 4.3128487026e-03
4.4847036585e+01 4.3626023770e-03
4.5999816957e+01 4.3868848470e-03
4.7168267640e+01 4.4120624882e-03
4.8352786679e+01 4.4564921174e-03
4.9553777591e+01 4.5439413764e-03
5.0771649508e+01 4.6811555433e-03
5.2006817308e+01 4.8465618369e-03
5.3259701767e+01 4.9874706363e-03
5.4530729690e+01 5.0447782525e-03
5.5820334067e+01 4.9664020400e-03
5.7128954215e+01 4.7430078853e-03
5.8457035929e+01 4.4288147327e-03
5.9805031633e+01 4.1082156016e-03
6.1173400536e+01 3.8175506679e-03
6.2562608788e+01 3.5657576722e-03
6.3973129635e+01 3.3855366442e-03
6.5405443587e+01 3.3018920253e-03
6.6860038576e+01 3.2849081929e-03
6.8337410125e+01 3.2916856877e-03
6.9838061516e+01 3.3096219774e-03
7.1362503960e+01 3.3439552088e-03
7.2911256775e+01 3.3922731782e-03
7.4484847559e+01 3.4699204522e-03
7.6083812373e+01 3.5726595480e-03
7.7708695921e+01 3.6354230291e-03
7.9360051734e+01 3.6319613533e-03
8.1038442365e+01 3.6093256562e-03
8.2744439576e+01 3.5672822828e-03
8.4478624530e+01 3.4384730416e-03
8.6241587997e+01 3.1849664245e-03
8.8033930547e+01 2.8576583248e-03
8.9856262762e+01 2.5591217052e-03
9.1709205436e+01 2.3439898371e-03
9.3593389795e+01 2.1623720747e-03
9.5509457704e+01 1.9501058532e-03
9.7458061892e+01 1.7107708466e-03
9.9439866172e+01 1.4663693528e-03
1.0145554566e+02 1.2447421466e-03
1.0350578703e+02 1.1111139645e-03
1.0559128871e+02 1.0707321834e-03
1.0771276115e+02 1.0596908375e-03
1.0987092704e+02 1.0446193376e-03
1.1206652160e+02 1.0677555918e-03
1.1430029277e+02 1.1140085871e-03
1.1657300151e+02 1.1040234754e-03
1.1888542205e+02 1.0558648074e-03
1.2123834212e+02 1.0330690073e-03
1.2363256328e+02 1.0358570709e-03
1.2606890115e+02 1.0192973652e-03
1.2854818569e+02 9.8122313334e-04
1.3107126148e+02 9.6054047235e-04
1.3363898805e+02 9.8729709855e-04
1.3625224012e+02 1.0409257622e-03
1.3891190791e+02 1.0774322771e-03
1.4161889747e+02 1.1083593603e-03
1.4437413097e+02 1.1077709598e-03
1.4717854699e+02 1.0486688926e-03
1.5003310091e+02 1.0329166352e-03
1.5293876514e+02 1.0773177756e-03
1.5589652954e+02 1.0201785048e-03
1.5890740169e+02 8.2067989809e-04
1.6197240728e+02 6.4050248144e-04
1.6509259044e+02 5.6599528468e-04
1.6826901409e+02 5.2353577998e-04
1.7150276031e+02 4.2383960096e-04
1.7479493070e+02 2.7475616027e-04
1.7814664679e+02 1.2241090500e-04
1.8155905037e+02 -8.9316922000e-07
1.8503330390e+02 -4.5036962890e-05
1.8857059093e+02 2.7451820526e-05
1.9217211647e+02 1.6704152432e-04
1.9583910742e+02 2.9538786877e-04
1.9957281298e+02 4.0147038782e-04
2.0337450507e+02 5.1481139000e-04
2.0724547877e+02 5.1113896540e-04
2.1118705278e+02 4.6082188154e-04
2.1520056983e+02 5.0477796512e-04
2.1928739716e+02 5.9084681716e-04
2.2344892701e+02 6.7805865402e-04
2.2768657703e+02 7.4281163870e-04
2.3200179082e+02 7.4761650241e-04
2.3639603841e+02 7.0415381380e-04
2.4087081674e+02 6.6721968778e-04
2.4542765019e+02 6.3586238896e-04
2.5006809109e+02 5.1854342816e-04
2.5479372026e+02 4.1632727481e-04
2.5960614754e+02 4.5651478402e-04
2.6450701231e+02 5.1251353783e-04
2.6949798412e+02 5.7985690513e-04
2.7458076319e+02 6.8148340392e-04
2.7975708102e+02 7.3083251058e-04
2.8502870098e+02 7.3468516071e-04
2.9039741890e+02 8.2989388394e-04
2.9586506368e+02 9.9907247260e-04
3.0143349794e+02 1.1448115172e-03
3.0710461862e+02 1.1699709335e-03
3.1288035765e+02 1.1812390452e-03
3.1876268259e+02 1.2537384361e-03
3.2475359732e+02 1.3783771088e-03
3.3085514269e+02 1.5410076457e-03
3.3706939727e+02 1.6178041976e-03
3.4339847799e+02 1.6409980846e-03
3.4984454091e+02 1.6030053237e-03
3.5640978188e+02 1.5016783763e-03
3.6309643733e+02 1.4885191283e-03
3.6990678487e+02 1.5671787712e-03
3.7684314396e+02 1.6719473008e-03
3.8390787633e+02 1.7126444171e-03
3.9110338615e+02 1.6541141809e-03
3.9843211953e+02 1.6458048847e-03
4.0589656306e+02 1.6549928210e-03
4.1349924044e+02 1.5980050023e-03
4.2124270614e+02 1.5224786680e-03
4.2912953435e+02 1.4273669941e-03
4.3716230063e+02 1.3328785462e-03
4.4534355328e+02 1.2524187170e-03
4.5367577013e+02 1.1504142281e-03
4.6216129653e+02 1.0393712853e-03
4.7080225980e+02 9.1570639804e-04
4.7960045663e+02 7.9617362854e-04
4.8855721127e+02 7.1093803562e-04
4.9767320634e+02 6.1121850782e-04
5.0694829158e+02 5.0501146117e-04
5.1638128212e+02 4.1472004465e-04
5.2596976245e+02 3.3612213895e-04
5.3570991718e+02 2.6979220407e-04
5.4559641198e+02 2.2329173698e-04
5.5562234697e+02 1.8401640860e-04
5.6577930043e+02 1.4760527607e-04
5.7605747209e+02 1.1539722696e-04
5.8644592435e+02 8.6599548885e-05
5.9693290738e+02 6.4958305648e-05
6.0750624294e+02 4.6198647567e-05
6.1815373393e+02 3.3087156846e-05
6.2886356302e+02 2.6398499296e-05
6.3962464611e+02 1.9385190034e-05
6.5042691296e+02 1.3342201742e-05
6.6126149787e+02 8.7454920923e-06
6.7212083508e+02 6.3335832539e-06
6.8299866488e+02 4.8514157990e-06
6.9388996500e+02 3.8365369232e-06
7.0479082754e+02 2.9580051373e-06
7.1569830307e+02 2.1007916972e-06
7.2661023225e+02 1.4228558411e-06
7.3752508151e+02 1.1999886960e-06
7.4844179417e+02 8.5289349894e-07
7.5935966386e+02 5.0006601637e-07
7.7027823245e+02 3.4299811258e-07
7.8119721165e+02 2.5341457005e-07
7.9211642543e+02 1.9605331622e-07
8.0303576952e+02 1.5682671802e-07
8.1395518398e+02 1.2620416481e-07
8.2487463536e+02 1.0262673032e-07
8.3579410559e+02 8.4186756912e-08
8.4671358515e+02 6.9466057313e-08
8.5763306920e+02 5.7755392276e-08
8.6855255537e+02 4.8299314475e-08
8.7947204248e+02 4.0635404693e-08
8.9039153002e+02 3.4355034145e-08
9.0131101774e+02 2.9177631973e-08
9.1223050554e+02 2.4881962046e-08
9.2314999336e+02 2.1217989360e-08
9.3406948120e+02 1.8135693091e-08
9.4498896904e+02 1.5516554424e-08
9.5590845688e+02 1.3278716411e-08
9.6682794473e+02 1.1310631391e-08
9.7774743257e+02 9.6069932860e-09
9.8866692042e+02 8.0909662085e-09
9.9958640826e+02 6.7975123975e-09
1.0105058961e+03 5.6966114082e-09
1.0214253840e+03 4.7857432171e-09
1.0323448718e+03 4.0013860828e-09
1.0432643596e+03 3.3770382137e-09
1.0541838475e+03 2.8855570538e-09
1.0651033353e+03 2.5683445065e-09
1.0760228232e+03 2.3174694431e-09
1.0869423110e+03 2.1410349081e-09
1.0978617989e+03 2.0008157303e-09
1.1087812867e+03 1.9135660861e-09
1.1197007746e+03 1.8509548055e-09
1.1306202624e+03 1.8072503603e-09
1.1415397502e+03 1.7381778315e-09
1.1524592381e+03 1.6633857805e-09
1.1633787259e+03 1.5490420037e-09
1.1742982138e+03 1.4312280769e-09
1.1852177016e+03 1.3240421385e-09
1.1961371895e+03 1.2344642135e-09
1.2070566773e+03 1.1689014703e-09
1.2179761652e+03 1.1503154204e-09
1.2288956530e+03 1.0635536946e-09
1.2398151408e+03 9.6439351374e-10
1.2507346287e+03 8.6426940980e-10
1.2616541165e+03 7.2702441706e-10
1.2725736044e+03 6.5131048416e-10
1.2834930922e+03 5.5862829727e-10
1.2944125801e+03 5.3780820270e-10
1.3053320679e+03 5.2772046185e-10
1.3162515558e+03 5.2621937522e-10
1.3271710436e+03 5.2883138825e-10
1.3380905314e+03 5.0059592314e-10
1.3490100193e+03 4.0293007728e-10
1.3599295071e+03 2.8846809963e-10
1.3708489950e+03 1.4652618241e-10
1.3817684828e+03 -7.4433303398e-12
1.3926879707e+03 -1.4157409462e-10
1.4036074585e+03 -2.5661708775e-10
1.4145269464e+03 -3.2709857355e-10
1.4254464342e+03 -4.0941502208e-10
1.4363659220e+03 -4.6440860771e-10
1.4472854099e+03 -4.9409387527e-10
1.4582048977e+03 -5.3116362400e-10
1.4691243856e+03 -5.5178126882e-10
1.4800438734e+03 -5.4504321961e-10
1.4909633613e+03 -5.5237593395e-10
1.5018828491e+03 -5.2320425706e-10
1.5128023370e+03 -5.0748636723e-10
1.5237218248e+03 -4.5034455039e-10
1.5346413126e+03 -3.9851559689e-10
1.5455608005e+03 -3.0180637065e-10
1.5564802883e+03 -2.2777867496e-10
1.5673997762e+03 -1.7871994960e-10
1.5783192640e+03 -1.3070458801e-10
1.5892387519e+03 -1.0157604586e-10
1.6001582397e+03 -9.4652027729e-11
1.6110777276e+03 -1.1096423741e-10
1.6219972154e+03 -1.0964577614e-10
1.6329167032e+03 -1.2345602736e-10
1.6438361911e+03 -1.2330795333e-10
1.6547556789e+03 -1.2098081771e-10
1.6656751668e+03 -1.2906599647e-10
1.6765946546e+03 -1.0823146051e-10
1.6875141425e+03 -4.2936779678e-11
1.6984336303e+03 -3.7504120008e-12
1.7093531182e+03 8.4283051224e-11
1.7202726060e+03 1.4010084166e-10
1.7311920938e+03 1.7550433386e-10
1.7421115817e+03 1.7575404467e-10
1.7530310695e+03 1.7198719107e-10
1.7639505574e+03 1.4342937992e-10
1.7748700452e+03 9.7471023851e-11
1.7857895331e+03 8.1808826143e-11
1.7967090209e+03 8.5882162184e-11
1.8076285088e+03 1.0470381426e-10
1.8185479966e+03 1.6766686072e-10
1.8294674844e+03 2.2606737904e-10
1.8403869723e+03 2.8873348405e-10
1.8513064601e+03 3.6941302737e-10
1.8622259480e+03 4.0523222986e-10
1.8731454358e+03 4.3698715949e-10
1.8840649237e+03 4.6020108319e-10
1.8949844115e+03 4.2760433530e-10
1.9059038994e+03 4.0220986686e-10
1.9168233872e+03 3.5494936955e-10
1.9277428750e+03 2.7060332470e-10
1.9386623629e+03 1.9862427346e-10
1.9495818507e+03 1.1519518394e-10
1.9605013386e+03 1.6638828625e-11
1.9714208264e+03 -7.7122473862e-11
1.9823403143e+03 -1.2302389331e-10
1.9932598021e+03 -1.7183882665e-10
2.0041792900e+03 -2.2217793198e-10
2.0150987778e+03 -2.5677230139e-10
2.0260182656e+03 -2.7812123745e-10
2.0369377535e+03 -3.1738275638e-10
2.0478572413e+03 -3.6108805568e-10
2.0587767292e+03 -3.9776803775e-10
2.0696962170e+03 -4.1623083146e-10
2.0806157049e+03 -4.3081879108e-10
2.0915351927e+03 -4.2830931596e-10
2.1024546806e+03 -4.0828202304e-10
2.1133741684e+03 -4.0046809926e-10
2.1242936562e+03 -3.6895121621e-10
2.1352131441e+03 -3.3275061088e-10
2.1461326319e+03 -3.0753595945e-10
2.1570521198e+03 -2.8986641200e-10
2.1679716076e+03 -2.1911990656e-10
2.1788910955e+03 -1.8679754740e-10
2.1898105833e+03 -1.2955773557e-10
2.2007300712e+03 -8.3676322117e-11
2.2116495590e+03 -2.3440343254e-11
2.2225690468e+03 1.8587459908e-11
2.2334885347e+03 6.5184076378e-11
2.2444080225e+03 1.2557507047e-10
2.2553275104e+03 1.5210102081e-10
2.2662469982e+03 2.1969087097e-10
2.2771664861e+03 2.3226154400e-10
2.2880859739e+03 2.4962806578e-10
2.2990054618e+03 2.5192318620e-10
2.3099249496e+03 2.3907911831e-10
2.3208444374e+03 2.3302968574e-10
2.3317639253e+03 2.3477521488e-10
2.3426834131e+03 2.1711800365e-10
2.3536029010e+03 2.4150946498e-10
2.3645223888e+03 2.4529834343e-10
2.3754418767e+03 2.5460893661e-10
2.3863613645e+03 2.3628764687e-10
2.3972808524e+03 2.2325906462e-10
2.4082003402e+03 1.8677740648e-10
2.4191198280e+03 1.6262854530e-10
2.4300393159e+03 1.4280826084e-10
2.4409588037e+03 1.4750339407e-10
2.4518782916e+03 1.8095408453e-10
2.4627977794e+03 2.5357562049e-10
2.4737172673e+03 3.1557555006e-10
2.4846367551e+03 4.0841780740e-10
2.4955562430e+03 5.1219257361e-10
2.5064757308e+03 6.0273757304e-10
2.5173952187e+03 7.0991153204e-10
2.5283147065e+03 7.8385939921e-10
2.5392341943e+03 8.5091580054e-10
2.5501536822e+03 8.6938852035e-10
2.5610731700e+03 8.9323394771e-10
2.5719926579e+03 8.4025237592e-10
2.5829121457e+03 7.7961546515e-10
2.5938316336e+03 7.3653621711e-10
2.6047511214e+03 6.6422462173e-10
2.6156706093e+03 6.1627567109e-10
2.6265900971e+03 5.5184715536e-10
2.6375095849e+03 4.9608271475e-10
2.6484290728e+03 4.1733022891e-10
2.6593485606e+03 2.9595420090e-10
2.6702680485e+03 1.4587979634e-10
2.6811875363e+03 -2.5163387058e-11
2.6921070242e+03 -2.4862204902e-10
2.7030265120e+03 -5.3152419426e-10
2.7139459999e+03 -8.2665742911e-10
2.7248654877e+03 -1.1289470931e-09
2.7357849755e+03 -1.4239725043e-09
2.7467044634e+03 -1.6579752024e-09
2.7576239512e+03 -1.8321084464e-09
2.7685434391e+03 -1.8883165828e-09
2.7794629269e+03 -1.9284533259e-09
2.7903824148e+03 -1.6057951066e-09
2.8013019026e+03 -1.8731647941e-09
2.8122213905e+03 -1.5599602965e-09
