# Turbulent kinetic energy budget term: phi (viscous dissipation)
# Definition: phi = \overline{\sigma_{ij}' \partial u_i'' / \partial x_j}
# Columns: y_plus    phi^+
3.9832992606e-01 -2.1591512193e-01
1.1887924427e+00 -1.9642085917e-01
1.9799514194e+00 -1.8589677085e-01
2.7719943680e+00 -1.7611359010e-01
3.5651283791e+00 -1.6598511528e-01
4.3595770683e+00 -1.5639843614e-01
5.1555775073e+00 -1.4861469631e-01
5.9533773809e+00 -1.4326339657e-01
6.7532325235e+00 -1.4024839712e-01
7.5554049053e+00 -1.3899918190e-01
8.3601610713e+00 -1.3878653809e-01
9.1677709952e+00 -1.3892244580e-01
9.9785072812e+00 -1.3890592605e-01
1.0792644643e+01 -1.3845926673e-01
1.1610459588e+01 -1.3749602696e-01
1.2432230253e+01 -1.3603316800e-01
1.3258236337e+01 -1.3412467706e-01
1.4088759099e+01 -1.3183151048e-01
1.4924081400e+01 -1.2922390377e-01
1.5764487770e+01 -1.2637689928e-01
1.6610264487e+01 -1.2336416145e-01
1.7461699667e+01 -1.2025364254e-01
1.8319083357e+01 -1.1710514527e-01
1.9182707631e+01 -1.1395770915e-01
2.0052866693e+01 -1.1082445984e-01
2.0929856971e+01 -1.0770323092e-01
2.1813977219e+01 -1.0459837544e-01
2.2705528623e+01 -1.0152670513e-01
2.3604814899e+01 -9.8502522389e-02
2.4512142398e+01 -9.5526480501e-02
2.5427820210e+01 -9.2594900547e-02
2.6352160271e+01 -8.9711878129e-02
2.7285477466e+01 -8.6893241727e-02
2.8228089740e+01 -8.4159763531e-02
2.9180318202e+01 -8.1525586182e-02
3.0142487241e+01 -7.8992534273e-02
3.1114924627e+01 -7.6555392519e-02
3.2097961633e+01 -7.4208222755e-02
3.3091933139e+01 -7.1945934862e-02
3.4097177753e+01 -6.9764800980e-02
3.5114037921e+01 -6.7662053200e-02
3.6142860047e+01 -6.5632185272e-02
3.7183994610e+01 -6.3664990578e-02
3.8237796283e+01 -6.1752251717e-02
3.9304624055e+01 -5.9897693115e-02
4.0384841351e+01 -5.8117857219e-02
4.1478816159e+01 -5.6428894000e-02
4.2586921152e+01 -5.4831490041e-02
4.3709533817e+01 -5.3310017579e-02
4.4847036585e+01 -5.1842172750e-02
4.5999816957e+01 -5.0410409680e-02
4.7168267640e+01 -4.9013188220e-02
4.8352786679e+01 -4.7662282813e-02
4.9553777591e+01 -4.6365837406e-02
5.0771649508e+01 -4.5125748572e-02
5.2006817308e+01 -4.3942509880e-02
5.3259701767e+01 -4.2810628993e-02
5.4530729690e+01 -4.1717026155e-02
5.5820334067e+01 -4.0649012617e-02
5.7128954215e+01 -3.9603387208e-02
5.8457035929e+01 -3.8583842243e-02
5.9805031633e+01 -3.7594712363e-02
6.1173400536e+01 -3.6641202193e-02
6.2562608788e+01 -3.5723742769e-02
6.3973129635e+01 -3.4834973880e-02
6.5405443587e+01 -3.3970615814e-02
6.6860038576e+01 -3.3135403046e-02
6.8337410125e+01 -3.2333147519e-02
6.9838061516e+01 -3.1562393880e-02
7.1362503960e+01 -3.0815690787e-02
7.2911256775e+01 -3.0085054961e-02
7.4484847559e+01 -2.9371228500e-02
7.6083812373e+01 -2.8680655527e-02
7.7708695921e+01 -2.8011569201e-02
7.9360051734e+01 -2.7355538245e-02
8.1038442365e+01 -2.6707332603e-02
8.2744439576e+01 -2.6078002394e-02
8.4478624530e+01 -2.5475393328e-02
8.6241587997e+01 -2.4893607057e-02
8.8033930547e+01 -2.4326162449e-02
8.9856262762e+01 -2.3768528536e-02
9.1709205436e+01 -2.3211391264e-02
9.3593389795e+01 -2.2665530387e-02
9.5509457704e+01 -2.2148096707e-02
9.7458061892e+01 -2.1650975728e-02
9.9439866172e+01 -2.1159049690e-02
1.0145554566e+02 -2.0669681249e-02
1.0350578703e+02 -2.0189995172e-02
1.0559128871e+02 -1.9723425100e-02
1.0771276115e+02 -1.9264722395e-02
1.0987092704e+02 -1.8817834555e-02
1.1206652160e+02 -1.8384156231e-02
1.1430029277e+02 -1.7969273853e-02
1.1657300151e+02 -1.7568420678e-02
1.1888542205e+02 -1.7167473054e-02
1.2123834212e+02 -1.6769955662e-02
1.2363256328e+02 -1.6382402495e-02
1.2606890115e+02 -1.5998808570e-02
1.2854818569e+02 -1.5617349112e-02
1.3107126148e+02 -1.5243995199e-02
1.3363898805e+02 -1.4881626887e-02
1.3625224012e+02 -1.4535661048e-02
1.3891190791e+02 -1.4196269484e-02
1.4161889747e+02 -1.3860447637e-02
1.4437413097e+02 -1.3531229544e-02
1.4717854699e+02 -1.3202866622e-02
1.5003310091e+02 -1.2866075443e-02
1.5293876514e+02 -1.2529132521e-02
1.5589652954e+02 -1.2211259800e-02
1.5890740169e+02 -1.1902111158e-02
1.6197240728e+02 -1.1596294817e-02
1.6509259044e+02 -1.1301276010e-02
1.6826901409e+02 -1.1016405932e-02
1.7150276031e+02 -1.0738541112e-02
1.7479493070e+02 -1.0468686707e-02
1.7814664679e+02 -1.0201214862e-02
1.8155905037e+02 -9.9282599437e-03
1.8503330390e+02 -9.6512930239e-03
1.8857059093e+02 -9.3715591320e-03
1.9217211647e+02 -9.1040399676e-03
1.9583910742e+02 -8.8430454360e-03
1.9957281298e+02 -8.5835871714e-03
2.0337450507e+02 -8.3289072556e-03
2.0724547877e+02 -8.0772217791e-03
2.1118705278e+02 -7.8269463811e-03
2.1520056983e+02 -7.5778228291e-03
2.1928739716e+02 -7.3253257523e-03
2.2344892701e+02 -7.0795557754e-03
2.2768657703e+02 -6.8421095574e-03
2.3200179082e+02 -6.6069847266e-03
2.3639603841e+02 -6.3703971573e-03
2.4087081674e+02 -6.1324432708e-03
2.4542765019e+02 -5.9031785412e-03
2.5006809109e+02 -5.6861158428e-03
2.5479372026e+02 -5.4681376270e-03
2.5960614754e+02 -5.2455196505e-03
2.6450701231e+02 -5.0310850261e-03
2.6949798412e+02 -4.8178744452e-03
2.7458076319e+02 -4.6077172259e-03
2.7975708102e+02 -4.4022386282e-03
2.8502870098e+02 -4.1976772908e-03
2.9039741890e+02 -3.9965071405e-03
2.9586506368e+02 -3.7974597400e-03
3.0143349794e+02 -3.6070366971e-03
3.0710461862e+02 -3.4191230194e-03
3.1288035765e+02 -3.2354269192e-03
3.1876268259e+02 -3.0550855278e-03
3.2475359732e+02 -2.8754692866e-03
3.3085514269e+02 -2.6965764515e-03
3.3706939727e+02 -2.5232304373e-03
3.4339847799e+02 -2.3530470169e-03
3.4984454091e+02 -2.1891756602e-03
3.5640978188e+02 -2.0285374699e-03
3.6309643733e+02 -1.8754466896e-03
3.6990678487e+02 -1.7263945036e-03
3.7684314396e+02 -1.5803972699e-03
3.8390787633e+02 -1.4425521234e-03
3.9110338615e+02 -1.3070130867e-03
3.9843211953e+02 -1.1791204014e-03
4.0589656306e+02 -1.0618344850e-03
4.1349924044e+02 -9.4726665515e-04
4.2124270614e+02 -8.4043311195e-04
4.2912953435e+02 -7.4207595551e-04
4.3716230063e+02 -6.4864531729e-04
4.4534355328e+02 -5.6382121477e-04
4.5367577013e+02 -4.8592131341e-04
4.6216129653e+02 -4.1355862872e-04
4.7080225980e+02 -3.4986408208e-04
4.7960045663e+02 -2.9215365480e-04
4.8855721127e+02 -2.4265825173e-04
4.9767320634e+02 -2.0065116591e-04
5.0694829158e+02 -1.6280940310e-04
5.1638128212e+02 -1.3026840764e-04
5.2596976245e+02 -1.0324892508e-04
5.3570991718e+02 -8.1063829644e-05
5.4559641198e+02 -6.2875545430e-05
5.5562234697e+02 -4.8240674201e-05
5.6577930043e+02 -3.7032518132e-05
5.7605747209e+02 -2.8132439054e-05
5.8644592435e+02 -2.1389235473e-05
5.9693290738e+02 -1.6085834889e-05
6.0750624294e+02 -1.1809637794e-05
6.1815373393e+02 -8.5735768956e-06
6.2886356302e+02 -6.4562825598e-06
6.3962464611e+02 -4.9307345115e-06
6.5042691296e+02 -3.7446034112e-06
6.6126149787e+02 -2.8313271021e-06
6.7212083508e+02 -2.1267093887e-06
6.8299866488e+02 -1.5977651101e-06
6.9388996500e+02 -1.2158184641e-06
7.0479082754e+02 -9.8312918953e-07
7.1569830307e+02 -8.0117435834e-07
7.2661023225e+02 -6.5009759044e-07
7.3752508151e+02 -5.6109051254e-07
7.4844179417e+02 -4.8653361508e-07
7.5935966386e+02 -4.0446948245e-07
7.7027823245e+02 -3.5170151158e-07
7.8119721165e+02 -3.1226436732e-07
7.9211642543e+02 -2.8246986249e-07
8.0303576952e+02 -2.5958161464e-07
8.1395518398e+02 -2.4063676239e-07
8.2487463536e+02 -2.2482665614e-07
8.3579410559e+02 -2.1151664196e-07
8.4671358515e+02 -2.0022409450e-07
8.5763306920e+02 -1.9059917195e-07
8.6855255537e+02 -1.8236630198e-07
8.7947204248e+02 -1.7532898286e-07
8.9039153002e+02 -1.6930410571e-07
9.0131101774e+02 -1.6415299120e-07
9.1223050554e+02 -1.5973789827e-07
9.2314999336e+02 -1.5595375679e-07
9.3406948120e+02 -1.5270257278e-07
9.4498896904e+02 -1.4991451371e-07
9.5590845688e+02 -1.4752878058e-07
9.6682794473e+02 -1.4549638988e-07
9.7774743257e+02 -1.4376959889e-07
9.8866692042e+02 -1.4230979261e-07
9.9958640826e+02 -1.4108072059e-07
1.0105058961e+03 -1.4005324059e-07
1.0214253840e+03 -1.3920771071e-07
1.0323448718e+03 -1.3852930425e-07
1.0432643596e+03 -1.3801155397e-07
1.0541838475e+03 -1.3764849086e-07
1.0651033353e+03 -1.3743746391e-07
1.0760228232e+03 -1.3736307234e-07
1.0869423110e+03 -1.3740534565e-07
1.0978617989e+03 -1.3753645339e-07
1.1087812867e+03 -1.3773535290e-07
1.1197007746e+03 -1.3798270331e-07
1.1306202624e+03 -1.3826934298e-07
1.1415397502e+03 -1.3859003966e-07
1.1524592381e+03 -1.3894004612e-07
1.1633787259e+03 -1.3931461433e-07
1.1742982138e+03 -1.3970410889e-07
1.1852177016e+03 -1.4010799838e-07
1.1961371895e+03 -1.4052541085e-07
1.2070566773e+03 -1.4097078372e-07
1.2179761652e+03 -1.4145063538e-07
1.2288956530e+03 -1.4197600755e-07
1.2398151408e+03 -1.4253591423e-07
1.2507346287e+03 -1.4312806457e-07
1.2616541165e+03 -1.4374076669e-07
1.2725736044e+03 -1.4437971909e-07
1.2834930922e+03 -1.4504501356e-07
1.2944125801e+03 -1.4573701252e-07
1.3053320679e+03 -1.4644638230e-07
1.3162515558e+03 -1.4716235908e-07
1.3271710436e+03 -1.4788825945e-07
1.3380905314e+03 -1.4862792323e-07
1.3490100193e+03 -1.4939322719e-07
1.3599295071e+03 -1.5017346900e-07
1.3708489950e+03 -1.5096522915e-07
1.3817684828e+03 -1.5175100946e-07
1.3926879707e+03 -1.5253658360e-07
1.4036074585e+03 -1.5331879181e-07
1.4145269464e+03 -1.5410575784e-07
1.4254464342e+03 -1.5489003025e-07
1.4363659220e+03 -1.5566925339e-07
1.4472854099e+03 -1.5643564493e-07
1.4582048977e+03 -1.5719081477e-07
1.4691243856e+03 -1.5793629055e-07
1.4800438734e+03 -1.5867788362e-07
1.4909633613e+03 -1.5942121588e-07
1.5018828491e+03 -1.6016620194e-07
1.5128023370e+03 -1.6091772243e-07
1.5237218248e+03 -1.6167354707e-07
1.5346413126e+03 -1.6244269115e-07
1.5455608005e+03 -1.6322376420e-07
1.5564802883e+03 -1.6402387747e-07
1.5673997762e+03 -1.6483468387e-07
1.5783192640e+03 -1.6565595433e-07
1.5892387519e+03 -1.6647705958e-07
1.6001582397e+03 -1.6730240182e-07
1.6110777276e+03 -1.6812490577e-07
1.6219972154e+03 -1.6894568933e-07
1.6329167032e+03 -1.6975191955e-07
1.6438361911e+03 -1.7054436711e-07
1.6547556789e+03 -1.7131690269e-07
1.6656751668e+03 -1.7207579624e-07
1.6765946546e+03 -1.7281838604e-07
1.6875141425e+03 -1.7354433115e-07
1.6984336303e+03 -1.7425049166e-07
1.7093531182e+03 -1.7492972039e-07
1.7202726060e+03 -1.7558708188e-07
1.7311920938e+03 -1.7621589324e-07
1.7421115817e+03 -1.7683609456e-07
1.7530310695e+03 -1.7744169201e-07
1.7639505574e+03 -1.7806479467e-07
1.7748700452e+03 -1.7869471289e-07
1.7857895331e+03 -1.7936160590e-07
1.7967090209e+03 -1.8003504749e-07
1.8076285088e+03 -1.8072917330e-07
1.8185479966e+03 -1.8140233407e-07
1.8294674844e+03 -1.8207430526e-07
1.8403869723e+03 -1.8271499661e-07
1.8513064601e+03 -1.8335455418e-07
1.8622259480e+03 -1.8396511635e-07
1.8731454358e+03 -1.8457654041e-07
1.8840649237e+03 -1.8515831636e-07
1.8949844115e+03 -1.8574596025e-07
1.9059038994e+03 -1.8631162641e-07
1.9168233872e+03 -1.8690036125e-07
1.9277428750e+03 -1.8747679051e-07
1.9386623629e+03 -1.8808467026e-07
1.9495818507e+03 -1.8867435951e-07
1.9605013386e+03 -1.8930035508e-07
1.9714208264e+03 -1.8990926654e-07
1.9823403143e+03 -1.9056678592e-07
1.9932598021e+03 -1.9120692328e-07
2.0041792900e+03 -1.9189632619e-07
2.0150987778e+03 -1.9256133573e-07
2.0260182656e+03 -1.9326215157e-07
2.0369377535e+03 -1.9391889459e-07
2.0478572413e+03 -1.9457971251e-07
2.0587767292e+03 -1.9518515156e-07
2.0696962170e+03 -1.9578223079e-07
2.0806157049e+03 -1.9633983951e-07
2.0915351927e+03 -1.9687214034e-07
2.1024546806e+03 -1.9737001350e-07
2.1133741684e+03 -1.9780597138e-07
2.1242936562e+03 -1.9820796781e-07
2.1352131441e+03 -1.9850583342e-07
2.1461326319e+03 -1.9877367137e-07
2.1570521198e+03 -1.9890665448e-07
2.1679716076e+03 -1.9903265615e-07
2.1788910955e+03 -1.9901252009e-07
2.1898105833e+03 -1.9901243536e-07
2.2007300712e+03 -1.9886007104e-07
2.2116495590e+03 -1.9875157472e-07
2.2225690468e+03 -1.9850277270e-07
2.2334885347e+03 -1.9832966748e-07
2.2444080225e+03 -1.9804863785e-07
2.2553275104e+03 -1.9786382845e-07
2.2662469982e+03 -1.9759706412e-07
2.2771664861e+03 -1.9741204047e-07
2.2880859739e+03 -1.9716420378e-07
2.2990054618e+03 -1.9697336513e-07
2.3099249496e+03 -1.9677144067e-07
2.3208444374e+03 -1.9662357606e-07
2.3317639253e+03 -1.9655631837e-07
2.3426834131e+03 -1.9655102533e-07
2.3536029010e+03 -1.9673598038e-07
2.3645223888e+03 -1.9698020392e-07
2.3754418767e+03 -1.9749961473e-07
2.3863613645e+03 -1.9801421387e-07
2.3972808524e+03 -1.9881715415e-07
2.4082003402e+03 -1.9948244706e-07
2.4191198280e+03 -2.0040660610e-07
2.4300393159e+03 -2.0104475974e-07
2.4409588037e+03 -2.0191485660e-07
2.4518782916e+03 -2.0236627283e-07
2.4627977794e+03 -2.0304019368e-07
2.4737172673e+03 -2.0319144047e-07
2.4846367551e+03 -2.0359003169e-07
2.4955562430e+03 -2.0340671422e-07
2.5064757308e+03 -2.0354478743e-07
2.5173952187e+03 -2.0309170488e-07
2.5283147065e+03 -2.0307594872e-07
2.5392341943e+03 -2.0248457212e-07
2.5501536822e+03 -2.0244951448e-07
2.5610731700e+03 -2.0186101454e-07
2.5719926579e+03 -2.0194720188e-07
2.5829121457e+03 -2.0153672536e-07
2.5938316336e+03 -2.0190738263e-07
2.6047511214e+03 -2.0189324311e-07
2.6156706093e+03 -2.0274066402e-07
2.6265900971e+03 -2.0345664165e-07
2.6375095849e+03 -2.0510530404e-07
2.6484290728e+03 -2.0711245857e-07
2.6593485606e+03 -2.1005888673e-07
2.6702680485e+03 -2.1412519429e-07
2.6811875363e+03 -2.1900778411e-07
2.6921070242e+03 -2.2605607287e-07
2.7030265120e+03 -2.3360918106e-07
2.7139459999e+03 -2.4445096995e-07
2.7248654877e+03 -2.5506500468e-07
2.7357849755e+03 -2.6953146547e-07
2.7467044634e+03 -2.8231349089e-07
2.7576239512e+03 -2.9820297389e-07
2.7685434391e+03 -3.1047143809e-07
2.7794629269e+03 -3.2360100891e-07
2.7903824148e+03 -3.3186989727e-07
2.8013019026e+03 -3.3812747250e-07
2.8122213905e+03 -3.4760346220e-07
