# Turbulent kinetic energy budget term: ST (density-dependent contributions)
# Definition: ST = -\bar{\rho} \tilde{k} (\partial \tilde{u}_k / \partial x_k) + ... (see manuscript)
# Columns: y_plus    ST^+
3.9832992606e-01 1.0885693797e-06
1.1887924427e+00 5.5242331493e-06
1.9799514194e+00 2.7912256078e-05
2.7719943680e+00 7.5501683876e-05
3.5651283791e+00 2.0103509595e-04
4.3595770683e+00 4.4234798220e-04
5.1555775073e+00 8.0551172299e-04
5.9533773809e+00 1.2668845632e-03
6.7532325235e+00 1.7646794557e-03
7.5554049053e+00 2.2427767275e-03
8.3601610713e+00 2.6471747353e-03
9.1677709952e+00 2.9546156506e-03
9.9785072812e+00 3.1528456846e-03
1.0792644643e+01 3.2504921313e-03
1.1610459588e+01 3.2596267939e-03
1.2432230253e+01 3.1993386965e-03
1.3258236337e+01 3.0872178867e-03
1.4088759099e+01 2.9391459469e-03
1.4924081400e+01 2.7688849866e-03
1.5764487770e+01 2.5857095290e-03
1.6610264487e+01 2.3990320158e-03
1.7461699667e+01 2.2135507220e-03
1.8319083357e+01 2.0356582628e-03
1.9182707631e+01 1.8667611249e-03
2.0052866693e+01 1.7104772141e-03
2.0929856971e+01 1.5657529288e-03
2.1813977219e+01 1.4345965267e-03
2.2705528623e+01 1.3152626316e-03
2.3604814899e+01 1.2091405114e-03
2.4512142398e+01 1.1138926223e-03
2.5427820210e+01 1.0298287368e-03
2.6352160271e+01 9.5403781919e-04
2.7285477466e+01 8.8642489808e-04
2.8228089740e+01 8.2458323643e-04
2.9180318202e+01 7.6887265408e-04
3.0142487241e+01 7.1760283364e-04
3.1114924627e+01 6.7133159624e-04
3.2097961633e+01 6.2879928384e-04
3.3091933139e+01 5.9063823990e-04
3.4097177753e+01 5.5566497535e-04
3.5114037921e+01 5.2380654012e-04
3.6142860047e+01 4.9319830478e-04
3.7183994610e+01 4.6345558657e-04
3.8237796283e+01 4.3365814896e-04
3.9304624055e+01 4.0451922897e-04
4.0384841351e+01 3.7585711461e-04
4.1478816159e+01 3.4832101822e-04
4.2586921152e+01 3.2187277717e-04
4.3709533817e+01 2.9732632458e-04
4.4847036585e+01 2.7463545898e-04
4.5999816957e+01 2.5396501966e-04
4.7168267640e+01 2.3462365855e-04
4.8352786679e+01 2.1639145215e-04
4.9553777591e+01 1.9875270967e-04
5.0771649508e+01 1.8168575310e-04
5.2006817308e+01 1.6483627898e-04
5.3259701767e+01 1.4807663439e-04
5.4530729690e+01 1.3150406005e-04
5.5820334067e+01 1.1617179232e-04
5.7128954215e+01 1.0329339132e-04
5.8457035929e+01 9.3654702832e-05
5.9805031633e+01 8.7113629884e-05
6.1173400536e+01 8.3326773520e-05
6.2562608788e+01 8.1541400870e-05
6.3973129635e+01 8.0641710297e-05
6.5405443587e+01 7.9070090262e-05
6.6860038576e+01 7.5263569630e-05
6.8337410125e+01 6.8288441236e-05
6.9838061516e+01 5.8006010585e-05
7.1362503960e+01 4.5244258596e-05
7.2911256775e+01 3.1353184853e-05
7.4484847559e+01 1.8959085130e-05
7.6083812373e+01 1.0924027875e-05
7.7708695921e+01 8.8883111076e-06
7.9360051734e+01 1.2375317458e-05
8.1038442365e+01 1.9057885070e-05
8.2744439576e+01 2.5951242425e-05
8.4478624530e+01 3.0351570090e-05
8.6241587997e+01 3.0793080020e-05
8.8033930547e+01 2.7325644681e-05
8.9856262762e+01 2.1076391520e-05
9.1709205436e+01 1.3889962345e-05
9.3593389795e+01 7.4811894196e-06
9.5509457704e+01 4.0062250890e-06
9.7458061892e+01 4.0172058542e-06
9.9439866172e+01 5.4937851639e-06
1.0145554566e+02 5.9149089354e-06
1.0350578703e+02 3.9156486381e-06
1.0559128871e+02 1.0435233615e-06
1.0771276115e+02 -1.1698200131e-06
1.0987092704e+02 -3.0141113253e-06
1.1206652160e+02 -4.5634252445e-06
1.1430029277e+02 -6.4267162156e-06
1.1657300151e+02 -7.6580304258e-06
1.1888542205e+02 -8.8005800381e-06
1.2123834212e+02 -1.1171936872e-05
1.2363256328e+02 -1.3778869465e-05
1.2606890115e+02 -1.7164992092e-05
1.2854818569e+02 -2.1001805727e-05
1.3107126148e+02 -2.4901078718e-05
1.3363898805e+02 -2.7795936287e-05
1.3625224012e+02 -3.0382765554e-05
1.3891190791e+02 -3.3540982403e-05
1.4161889747e+02 -3.5229525225e-05
1.4437413097e+02 -3.5328755284e-05
1.4717854699e+02 -3.4881196948e-05
1.5003310091e+02 -3.4574280006e-05
1.5293876514e+02 -3.3516817753e-05
1.5589652954e+02 -3.0740523971e-05
1.5890740169e+02 -2.9153730271e-05
1.6197240728e+02 -3.1946872117e-05
1.6509259044e+02 -3.6613515113e-05
1.6826901409e+02 -3.8836365794e-05
1.7150276031e+02 -3.9046162781e-05
1.7479493070e+02 -3.7915592543e-05
1.7814664679e+02 -3.5995021258e-05
1.8155905037e+02 -3.4902806089e-05
1.8503330390e+02 -3.5288137919e-05
1.8857059093e+02 -3.5980562336e-05
1.9217211647e+02 -3.6299774860e-05
1.9583910742e+02 -3.7485691604e-05
1.9957281298e+02 -3.9768489127e-05
2.0337450507e+02 -4.1741751310e-05
2.0724547877e+02 -4.2245773235e-05
2.1118705278e+02 -4.1518599583e-05
2.1520056983e+02 -4.0085073913e-05
2.1928739716e+02 -3.8691609624e-05
2.2344892701e+02 -3.6702532109e-05
2.2768657703e+02 -3.4827155915e-05
2.3200179082e+02 -3.3750665262e-05
2.3639603841e+02 -3.2988476060e-05
2.4087081674e+02 -3.2188076382e-05
2.4542765019e+02 -3.0381740246e-05
2.5006809109e+02 -2.9143680839e-05
2.5479372026e+02 -2.9826115251e-05
2.5960614754e+02 -3.1575863867e-05
2.6450701231e+02 -3.2130004110e-05
2.6949798412e+02 -3.1377735628e-05
2.7458076319e+02 -3.0975015878e-05
2.7975708102e+02 -3.1572020272e-05
2.8502870098e+02 -3.3267733052e-05
2.9039741890e+02 -3.3665857749e-05
2.9586506368e+02 -3.2436308096e-05
3.0143349794e+02 -3.0319886994e-05
3.0710461862e+02 -2.8783073775e-05
3.1288035765e+02 -2.7121368059e-05
3.1876268259e+02 -2.5620559293e-05
3.2475359732e+02 -2.4746259119e-05
3.3085514269e+02 -2.2833220791e-05
3.3706939727e+02 -1.9980713293e-05
3.4339847799e+02 -1.7217492631e-05
3.4984454091e+02 -1.5021988480e-05
3.5640978188e+02 -1.3356547421e-05
3.6309643733e+02 -1.2490616931e-05
3.6990678487e+02 -1.1467126502e-05
3.7684314396e+02 -1.0122779767e-05
3.8390787633e+02 -9.3033913116e-06
3.9110338615e+02 -8.2984272815e-06
3.9843211953e+02 -6.8074376243e-06
4.0589656306e+02 -5.2633465618e-06
4.1349924044e+02 -3.8786149653e-06
4.2124270614e+02 -2.8377342718e-06
4.2912953435e+02 -1.9443127267e-06
4.3716230063e+02 -1.0920529935e-06
4.4534355328e+02 -3.3855964853e-07
4.5367577013e+02 2.8340393680e-07
4.6216129653e+02 1.0036801837e-06
4.7080225980e+02 1.5064073522e-06
4.7960045663e+02 1.7257736222e-06
4.8855721127e+02 1.7577201111e-06
4.9767320634e+02 1.7364226303e-06
5.0694829158e+02 1.7015341702e-06
5.1638128212e+02 1.6207138235e-06
5.2596976245e+02 1.4578309146e-06
5.3570991718e+02 1.2937934070e-06
5.4559641198e+02 1.1500700478e-06
5.5562234697e+02 1.0121612400e-06
5.6577930043e+02 8.8828562581e-07
5.7605747209e+02 7.7292836894e-07
5.8644592435e+02 6.6381455088e-07
5.9693290738e+02 5.6872415356e-07
6.0750624294e+02 4.9272222536e-07
6.1815373393e+02 4.3099229546e-07
6.2886356302e+02 3.7702315035e-07
6.3962464611e+02 3.3042710427e-07
6.5042691296e+02 2.8944715807e-07
6.6126149787e+02 2.5353527548e-07
6.7212083508e+02 2.2274813487e-07
6.8299866488e+02 1.9644854921e-07
6.9388996500e+02 1.7495048963e-07
7.0479082754e+02 1.5724256776e-07
7.1569830307e+02 1.4200420044e-07
7.2661023225e+02 1.2870808796e-07
7.3752508151e+02 1.1682828560e-07
7.4844179417e+02 1.0607703966e-07
7.5935966386e+02 9.7007219140e-08
7.7027823245e+02 8.9238513305e-08
7.8119721165e+02 8.2362257410e-08
7.9211642543e+02 7.6174122037e-08
8.0303576952e+02 7.0581226301e-08
8.1395518398e+02 6.5504071227e-08
8.2487463536e+02 6.0897732434e-08
8.3579410559e+02 5.6734076302e-08
8.4671358515e+02 5.2989007704e-08
8.5763306920e+02 4.9655916853e-08
8.6855255537e+02 4.6665563186e-08
8.7947204248e+02 4.3962197600e-08
8.9039153002e+02 4.1469775159e-08
9.0131101774e+02 3.9185968721e-08
9.1223050554e+02 3.7097891711e-08
9.2314999336e+02 3.5221377249e-08
9.3406948120e+02 3.3535144292e-08
9.4498896904e+02 3.2027826197e-08
9.5590845688e+02 3.0672523585e-08
9.6682794473e+02 2.9453244047e-08
9.7774743257e+02 2.8362594484e-08
9.8866692042e+02 2.7389268638e-08
9.9958640826e+02 2.6521017583e-08
1.0105058961e+03 2.5726049644e-08
1.0214253840e+03 2.4987535896e-08
1.0323448718e+03 2.4279053476e-08
1.0432643596e+03 2.3602466463e-08
1.0541838475e+03 2.2939427291e-08
1.0651033353e+03 2.2288436469e-08
1.0760228232e+03 2.1635679750e-08
1.0869423110e+03 2.0984872726e-08
1.0978617989e+03 2.0342944628e-08
1.1087812867e+03 1.9716871325e-08
1.1197007746e+03 1.9114957267e-08
1.1306202624e+03 1.8542913391e-08
1.1415397502e+03 1.8013657508e-08
1.1524592381e+03 1.7533776134e-08
1.1633787259e+03 1.7112778567e-08
1.1742982138e+03 1.6751138315e-08
1.1852177016e+03 1.6453138146e-08
1.1961371895e+03 1.6209967968e-08
1.2070566773e+03 1.6015486647e-08
1.2179761652e+03 1.5855425783e-08
1.2288956530e+03 1.5723337711e-08
1.2398151408e+03 1.5608649968e-08
1.2507346287e+03 1.5507065739e-08
1.2616541165e+03 1.5412941174e-08
1.2725736044e+03 1.5324060797e-08
1.2834930922e+03 1.5237820931e-08
1.2944125801e+03 1.5148957919e-08
1.3053320679e+03 1.5056404491e-08
1.3162515558e+03 1.4953814367e-08
1.3271710436e+03 1.4844808274e-08
1.3380905314e+03 1.4727464466e-08
1.3490100193e+03 1.4615150931e-08
1.3599295071e+03 1.4512977490e-08
1.3708489950e+03 1.4432919822e-08
1.3817684828e+03 1.4371793089e-08
1.3926879707e+03 1.4330045787e-08
1.4036074585e+03 1.4300534430e-08
1.4145269464e+03 1.4279726268e-08
1.4254464342e+03 1.4260790991e-08
1.4363659220e+03 1.4239331505e-08
1.4472854099e+03 1.4215421042e-08
1.4582048977e+03 1.4190056436e-08
1.4691243856e+03 1.4167346353e-08
1.4800438734e+03 1.4144325399e-08
1.4909633613e+03 1.4121659870e-08
1.5018828491e+03 1.4094179161e-08
1.5128023370e+03 1.4064523801e-08
1.5237218248e+03 1.4031171642e-08
1.5346413126e+03 1.4000611636e-08
1.5455608005e+03 1.3975030938e-08
1.5564802883e+03 1.3958829359e-08
1.5673997762e+03 1.3950153649e-08
1.5783192640e+03 1.3945341844e-08
1.5892387519e+03 1.3940215849e-08
1.6001582397e+03 1.3929190589e-08
1.6110777276e+03 1.3910044617e-08
1.6219972154e+03 1.3878931018e-08
1.6329167032e+03 1.3837975391e-08
1.6438361911e+03 1.3789465509e-08
1.6547556789e+03 1.3741082567e-08
1.6656751668e+03 1.3698324895e-08
1.6765946546e+03 1.3670375698e-08
1.6875141425e+03 1.3658908156e-08
1.6984336303e+03 1.3667258731e-08
1.7093531182e+03 1.3684484359e-08
1.7202726060e+03 1.3707668145e-08
1.7311920938e+03 1.3724720409e-08
1.7421115817e+03 1.3743749361e-08
1.7530310695e+03 1.3760890509e-08
1.7639505574e+03 1.3788636931e-08
1.7748700452e+03 1.3816215776e-08
1.7857895331e+03 1.3849584227e-08
1.7967090209e+03 1.3872821262e-08
1.8076285088e+03 1.3894616434e-08
1.8185479966e+03 1.3903481634e-08
1.8294674844e+03 1.3914184846e-08
1.8403869723e+03 1.3918163212e-08
1.8513064601e+03 1.3931135761e-08
1.8622259480e+03 1.3941033247e-08
1.8731454358e+03 1.3958759715e-08
1.8840649237e+03 1.3967633609e-08
1.8949844115e+03 1.3977797605e-08
1.9059038994e+03 1.3975385867e-08
1.9168233872e+03 1.3974966479e-08
1.9277428750e+03 1.3965933429e-08
1.9386623629e+03 1.3962629831e-08
1.9495818507e+03 1.3951785381e-08
1.9605013386e+03 1.3945852509e-08
1.9714208264e+03 1.3933397977e-08
1.9823403143e+03 1.3930583417e-08
1.9932598021e+03 1.3929375619e-08
2.0041792900e+03 1.3942490273e-08
2.0150987778e+03 1.3958894069e-08
2.0260182656e+03 1.3983560482e-08
2.0369377535e+03 1.4007495536e-08
2.0478572413e+03 1.4033870822e-08
2.0587767292e+03 1.4060894246e-08
2.0696962170e+03 1.4089277741e-08
2.0806157049e+03 1.4120398690e-08
2.0915351927e+03 1.4148914887e-08
2.1024546806e+03 1.4177098117e-08
2.1133741684e+03 1.4194898908e-08
2.1242936562e+03 1.4207919536e-08
2.1352131441e+03 1.4207802149e-08
2.1461326319e+03 1.4206776436e-08
2.1570521198e+03 1.4199009963e-08
2.1679716076e+03 1.4196505600e-08
2.1788910955e+03 1.4190351158e-08
2.1898105833e+03 1.4189513651e-08
2.2007300712e+03 1.4185326900e-08
2.2116495590e+03 1.4187812277e-08
2.2225690468e+03 1.4191447132e-08
2.2334885347e+03 1.4205457404e-08
2.2444080225e+03 1.4224210462e-08
2.2553275104e+03 1.4249717070e-08
2.2662469982e+03 1.4275159204e-08
2.2771664861e+03 1.4297615097e-08
2.2880859739e+03 1.4318188099e-08
2.2990054618e+03 1.4336593600e-08
2.3099249496e+03 1.4366509229e-08
2.3208444374e+03 1.4409724682e-08
2.3317639253e+03 1.4487338918e-08
2.3426834131e+03 1.4594491900e-08
2.3536029010e+03 1.4748286135e-08
2.3645223888e+03 1.4929552909e-08
2.3754418767e+03 1.5150066985e-08
2.3863613645e+03 1.5382997761e-08
2.3972808524e+03 1.5643910844e-08
2.4082003402e+03 1.5905123328e-08
2.4191198280e+03 1.6188297954e-08
2.4300393159e+03 1.6461926078e-08
2.4409588037e+03 1.6750963274e-08
2.4518782916e+03 1.7017993526e-08
2.4627977794e+03 1.7292952858e-08
2.4737172673e+03 1.7534310262e-08
2.4846367551e+03 1.7777576002e-08
2.4955562430e+03 1.7977512317e-08
2.5064757308e+03 1.8174393058e-08
2.5173952187e+03 1.8322268306e-08
2.5283147065e+03 1.8466815163e-08
2.5392341943e+03 1.8566378732e-08
2.5501536822e+03 1.8672528098e-08
2.5610731700e+03 1.8752923381e-08
2.5719926579e+03 1.8861654879e-08
2.5829121457e+03 1.8974412501e-08
2.5938316336e+03 1.9135455828e-08
2.6047511214e+03 1.9325578839e-08
2.6156706093e+03 1.9570233287e-08
2.6265900971e+03 1.9865296392e-08
2.6375095849e+03 2.0215283936e-08
2.6484290728e+03 2.0644648549e-08
2.6593485606e+03 2.1128700886e-08
2.6702680485e+03 2.1726489235e-08
2.6811875363e+03 2.2374273519e-08
2.6921070242e+03 2.3169861323e-08
2.7030265120e+03 2.4005508554e-08
2.7139459999e+03 2.5009180589e-08
2.7248654877e+03 2.6022854789e-08
2.7357849755e+03 2.7180669737e-08
2.7467044634e+03 2.8286060619e-08
2.7576239512e+03 2.9448914328e-08
2.7685434391e+03 3.0467762362e-08
2.7794629269e+03 3.1389552638e-08
2.7903824148e+03 3.1651997741e-08
2.8013019026e+03 3.2728029868e-08
2.8122213905e+03 3.2184809636e-08
