# Turbulent kinetic energy budget term: D (viscous diffusion)
# Definition: D = \partial_{x_j} (\overline{\sigma_{ij}' u_i''})
# Columns: y_plus    D^+
3.9832992606e-01 2.0282929503e-01
1.1887924427e+00 1.7651361777e-01
1.9799514194e+00 1.4731475582e-01
2.7719943680e+00 1.0936497770e-01
3.5651283791e+00 6.2826845170e-02
4.3595770683e+00 1.5457105421e-02
5.1555775073e+00 -2.5198680510e-02
5.9533773809e+00 -5.4780637886e-02
6.7532325235e+00 -7.2418445216e-02
7.5554049053e+00 -7.9652256546e-02
8.3601610713e+00 -7.9133844865e-02
9.1677709952e+00 -7.3703856380e-02
9.9785072812e+00 -6.5742709451e-02
1.0792644643e+01 -5.6917649111e-02
1.1610459588e+01 -4.8195238622e-02
1.2432230253e+01 -4.0080941115e-02
1.3258236337e+01 -3.2822029254e-02
1.4088759099e+01 -2.6535731336e-02
1.4924081400e+01 -2.1231286566e-02
1.5764487770e+01 -1.6844251433e-02
1.6610264487e+01 -1.3256826843e-02
1.7461699667e+01 -1.0328661629e-02
1.8319083357e+01 -7.9135959817e-03
1.9182707631e+01 -5.9028002661e-03
2.0052866693e+01 -4.2377674915e-03
2.0929856971e+01 -2.8961250582e-03
2.1813977219e+01 -1.8455573646e-03
2.2705528623e+01 -1.0369763007e-03
2.3604814899e+01 -4.2781993473e-04
2.4512142398e+01 -2.2994205037e-06
2.5427820210e+01 2.5390616593e-04
2.6352160271e+01 3.7534701049e-04
2.7285477466e+01 4.2077024983e-04
2.8228089740e+01 4.4788364822e-04
2.9180318202e+01 4.8887375263e-04
3.0142487241e+01 5.4277459027e-04
3.1114924627e+01 6.0038690390e-04
3.2097961633e+01 6.6249811914e-04
3.3091933139e+01 7.3631511939e-04
3.4097177753e+01 8.2013007371e-04
3.5114037921e+01 9.0114950822e-04
3.6142860047e+01 9.5639544823e-04
3.7183994610e+01 9.5808520035e-04
3.8237796283e+01 8.8748155069e-04
3.9304624055e+01 7.5847070079e-04
4.0384841351e+01 6.2098132981e-04
4.1478816159e+01 5.2509917613e-04
4.2586921152e+01 4.8114017400e-04
4.3709533817e+01 4.6619992276e-04
4.4847036585e+01 4.4599410953e-04
4.5999816957e+01 3.9083666365e-04
4.7168267640e+01 3.0268637670e-04
4.8352786679e+01 2.1737614609e-04
4.9553777591e+01 1.6231804315e-04
5.0771649508e+01 1.4112676309e-04
5.2006817308e+01 1.5198482077e-04
5.3259701767e+01 1.8878635978e-04
5.4530729690e+01 2.3454008527e-04
5.5820334067e+01 2.7240960091e-04
5.7128954215e+01 2.9741828959e-04
5.8457035929e+01 3.1039133551e-04
5.9805031633e+01 3.1250480019e-04
6.1173400536e+01 3.0451456420e-04
6.2562608788e+01 2.7884922306e-04
6.3973129635e+01 2.2751669930e-04
6.5405443587e+01 1.6278457749e-04
6.6860038576e+01 1.0708554603e-04
6.8337410125e+01 6.7920119789e-05
6.9838061516e+01 4.2847078592e-05
7.1362503960e+01 3.0861340567e-05
7.2911256775e+01 2.6141181591e-05
7.4484847559e+01 2.5273311282e-05
7.6083812373e+01 4.2562521625e-05
7.7708695921e+01 9.2634988872e-05
7.9360051734e+01 1.4979627879e-04
8.1038442365e+01 1.7141517934e-04
8.2744439576e+01 1.6398881864e-04
8.4478624530e+01 1.6152907870e-04
8.6241587997e+01 1.7386776147e-04
8.8033930547e+01 1.8943298470e-04
8.9856262762e+01 1.8167881725e-04
9.1709205436e+01 1.3297739958e-04
9.3593389795e+01 8.7409438910e-05
9.5509457704e+01 9.4840192142e-05
9.7458061892e+01 1.3494298180e-04
9.9439866172e+01 1.6363943467e-04
1.0145554566e+02 1.6002819267e-04
1.0350578703e+02 1.3235277642e-04
1.0559128871e+02 9.8817421872e-05
1.0771276115e+02 6.9944490796e-05
1.0987092704e+02 5.0332986126e-05
1.1206652160e+02 3.4854439347e-05
1.1430029277e+02 3.1891077280e-05
1.1657300151e+02 4.1678738843e-05
1.1888542205e+02 4.1373171890e-05
1.2123834212e+02 2.5642025636e-05
1.2363256328e+02 1.3048599174e-05
1.2606890115e+02 1.0081787412e-05
1.2854818569e+02 5.1899220509e-07
1.3107126148e+02 -1.8787237957e-05
1.3363898805e+02 -2.5993037970e-05
1.3625224012e+02 -5.2361990397e-06
1.3891190791e+02 1.8076827987e-05
1.4161889747e+02 3.0742888871e-05
1.4437413097e+02 5.4871334942e-05
1.4717854699e+02 7.3249433379e-05
1.5003310091e+02 4.9419012168e-05
1.5293876514e+02 1.0688796913e-05
1.5589652954e+02 5.0076283767e-06
1.5890740169e+02 4.1503050836e-06
1.6197240728e+02 -1.6850032178e-05
1.6509259044e+02 -3.1898504022e-05
1.6826901409e+02 -3.7810831306e-05
1.7150276031e+02 -4.0860199159e-05
1.7479493070e+02 -1.4813668752e-05
1.7814664679e+02 3.8454950127e-05
1.8155905037e+02 6.4294765471e-05
1.8503330390e+02 3.5268527065e-05
1.8857059093e+02 -1.2791970763e-05
1.9217211647e+02 -1.6846804093e-05
1.9583910742e+02 5.0247960480e-06
1.9957281298e+02 1.7137736292e-06
2.0337450507e+02 2.7960148302e-06
2.0724547877e+02 2.8714426700e-05
2.1118705278e+02 3.8721032009e-05
2.1520056983e+02 2.0276944280e-05
2.1928739716e+02 8.2146184110e-06
2.2344892701e+02 2.0083780031e-05
2.2768657703e+02 3.1298216265e-05
2.3200179082e+02 2.2940927988e-05
2.3639603841e+02 3.1299787191e-06
2.4087081674e+02 -2.4315023190e-06
2.4542765019e+02 2.2654248278e-05
2.5006809109e+02 5.0740483417e-05
2.5479372026e+02 2.9383026414e-05
2.5960614754e+02 -7.5596325917e-06
2.6450701231e+02 -4.3950229101e-06
2.6949798412e+02 5.7011331890e-06
2.7458076319e+02 6.5976978623e-06
2.7975708102e+02 9.7213171955e-06
2.8502870098e+02 1.1383841856e-05
2.9039741890e+02 9.5845306834e-06
2.9586506368e+02 1.5105890714e-06
3.0143349794e+02 4.1701920157e-06
3.0710461862e+02 1.8916019671e-05
3.1288035765e+02 2.2899358007e-05
3.1876268259e+02 1.0887529970e-05
3.2475359732e+02 -2.9466537716e-06
3.3085514269e+02 -1.0751259673e-06
3.3706939727e+02 1.5787134897e-05
3.4339847799e+02 2.5551371426e-05
3.4984454091e+02 3.0711212136e-05
3.5640978188e+02 2.7498591699e-05
3.6309643733e+02 2.3997543844e-05
3.6990678487e+02 2.3900809766e-05
3.7684314396e+02 2.2345897114e-05
3.8390787633e+02 3.0453755329e-05
3.9110338615e+02 2.9040586431e-05
3.9843211953e+02 2.2048004332e-05
4.0589656306e+02 3.0043565215e-05
4.1349924044e+02 3.6879148263e-05
4.2124270614e+02 3.8608338792e-05
4.2912953435e+02 3.9947887856e-05
4.3716230063e+02 3.7038912207e-05
4.4534355328e+02 3.5936177674e-05
4.5367577013e+02 3.6642674700e-05
4.6216129653e+02 3.6973351695e-05
4.7080225980e+02 3.8825728023e-05
4.7960045663e+02 3.5013262395e-05
4.8855721127e+02 3.0659446477e-05
4.9767320634e+02 3.0457858900e-05
5.0694829158e+02 2.8459060945e-05
5.1638128212e+02 2.4621753552e-05
5.2596976245e+02 2.0369555380e-05
5.3570991718e+02 1.6555934869e-05
5.4559641198e+02 1.4234607456e-05
5.5562234697e+02 1.2657374519e-05
5.6577930043e+02 1.0377679317e-05
5.7605747209e+02 8.3014045586e-06
5.8644592435e+02 7.3062192415e-06
5.9693290738e+02 6.4617304425e-06
6.0750624294e+02 5.4100480194e-06
6.1815373393e+02 4.0895863191e-06
6.2886356302e+02 3.1540316128e-06
6.3962464611e+02 2.6824885397e-06
6.5042691296e+02 2.1251658359e-06
6.6126149787e+02 1.5853005450e-06
6.7212083508e+02 1.2914341018e-06
6.8299866488e+02 1.0482772468e-06
6.9388996500e+02 7.6228507977e-07
7.0479082754e+02 5.9570271032e-07
7.1569830307e+02 5.4156274538e-07
7.2661023225e+02 4.3508493161e-07
7.3752508151e+02 3.6469084651e-07
7.4844179417e+02 3.4336807557e-07
7.5935966386e+02 2.8699032569e-07
7.7027823245e+02 2.3569245368e-07
7.8119721165e+02 2.0161707501e-07
7.9211642543e+02 1.7194818901e-07
8.0303576952e+02 1.4954838944e-07
8.1395518398e+02 1.3065833346e-07
8.2487463536e+02 1.1451135292e-07
8.3579410559e+02 1.0074842737e-07
8.4671358515e+02 8.8959715119e-08
8.5763306920e+02 7.8686663540e-08
8.6855255537e+02 6.9764094505e-08
8.7947204248e+02 6.1968489617e-08
8.9039153002e+02 5.5180412104e-08
9.0131101774e+02 4.9338207933e-08
9.1223050554e+02 4.4260376845e-08
9.2314999336e+02 3.9851311313e-08
9.3406948120e+02 3.5964944457e-08
9.4498896904e+02 3.2556912377e-08
9.5590845688e+02 2.9566067177e-08
9.6682794473e+02 2.6934707439e-08
9.7774743257e+02 2.4616203368e-08
9.8866692042e+02 2.2561122322e-08
9.9958640826e+02 2.0722277883e-08
1.0105058961e+03 1.9047639248e-08
1.0214253840e+03 1.7507273539e-08
1.0323448718e+03 1.6070630692e-08
1.0432643596e+03 1.4729444840e-08
1.0541838475e+03 1.3470578344e-08
1.0651033353e+03 1.2308142425e-08
1.0760228232e+03 1.1258275110e-08
1.0869423110e+03 1.0325651327e-08
1.0978617989e+03 9.4994092338e-09
1.1087812867e+03 8.7659799995e-09
1.1197007746e+03 8.1128403940e-09
1.1306202624e+03 7.5117729995e-09
1.1415397502e+03 6.9228704634e-09
1.1524592381e+03 6.2872545980e-09
1.1633787259e+03 5.6268547320e-09
1.1742982138e+03 4.9802631944e-09
1.1852177016e+03 4.4167377142e-09
1.1961371895e+03 3.9397286870e-09
1.2070566773e+03 3.5581470974e-09
1.2179761652e+03 3.2715616205e-09
1.2288956530e+03 3.0721583954e-09
1.2398151408e+03 2.9152535395e-09
1.2507346287e+03 2.7510037543e-09
1.2616541165e+03 2.5600518863e-09
1.2725736044e+03 2.3574029204e-09
1.2834930922e+03 2.1765407135e-09
1.2944125801e+03 2.0373605546e-09
1.3053320679e+03 1.9482931148e-09
1.3162515558e+03 1.8921058872e-09
1.3271710436e+03 1.8608884450e-09
1.3380905314e+03 1.8465869615e-09
1.3490100193e+03 1.8594357427e-09
1.3599295071e+03 1.9119155410e-09
1.3708489950e+03 2.0006726442e-09
1.3817684828e+03 2.1055922618e-09
1.3926879707e+03 2.1851327778e-09
1.4036074585e+03 2.2232718567e-09
1.4145269464e+03 2.2181626189e-09
1.4254464342e+03 2.1880122458e-09
1.4363659220e+03 2.1465291623e-09
1.4472854099e+03 2.1112337371e-09
1.4582048977e+03 2.1000857989e-09
1.4691243856e+03 2.1141517078e-09
1.4800438734e+03 2.1424035406e-09
1.4909633613e+03 2.1562320863e-09
1.5018828491e+03 2.1456830081e-09
1.5128023370e+03 2.1027588246e-09
1.5237218248e+03 2.0475872982e-09
1.5346413126e+03 1.9858186078e-09
1.5455608005e+03 1.9336487407e-09
1.5564802883e+03 1.8694047504e-09
1.5673997762e+03 1.7813280270e-09
1.5783192640e+03 1.6382297952e-09
1.5892387519e+03 1.4589379639e-09
1.6001582397e+03 1.2483154288e-09
1.6110777276e+03 1.0397935652e-09
1.6219972154e+03 8.2419048052e-10
1.6329167032e+03 6.2039599550e-10
1.6438361911e+03 4.1814126340e-10
1.6547556789e+03 2.3633531438e-10
1.6656751668e+03 5.8680854212e-11
1.6765946546e+03 -9.4288139567e-11
1.6875141425e+03 -2.3517338839e-10
1.6984336303e+03 -3.3534374186e-10
1.7093531182e+03 -4.1931413403e-10
1.7202726060e+03 -4.7319305545e-10
1.7311920938e+03 -5.2504573992e-10
1.7421115817e+03 -5.5398202259e-10
1.7530310695e+03 -5.7129598560e-10
1.7639505574e+03 -5.6016821685e-10
1.7748700452e+03 -5.3396655855e-10
1.7857895331e+03 -4.9792173372e-10
1.7967090209e+03 -4.6786050434e-10
1.8076285088e+03 -4.5984750099e-10
1.8185479966e+03 -4.6863856358e-10
1.8294674844e+03 -4.9772497665e-10
1.8403869723e+03 -5.0973759886e-10
1.8513064601e+03 -5.0321935859e-10
1.8622259480e+03 -4.3697675872e-10
1.8731454358e+03 -3.3507480525e-10
1.8840649237e+03 -1.7421880533e-10
1.8949844115e+03 -3.7861643165e-12
1.9059038994e+03 1.9223225530e-10
1.9168233872e+03 3.5254153078e-10
1.9277428750e+03 4.9717640900e-10
1.9386623629e+03 5.6324866570e-10
1.9495818507e+03 5.8771559140e-10
1.9605013386e+03 5.3265841720e-10
1.9714208264e+03 4.6405328989e-10
1.9823403143e+03 3.5995555305e-10
1.9932598021e+03 2.7069110579e-10
2.0041792900e+03 1.6013787632e-10
2.0150987778e+03 5.5404275229e-11
2.0260182656e+03 -8.1241462624e-11
2.0369377535e+03 -2.3408621533e-10
2.0478572413e+03 -4.2711723507e-10
2.0587767292e+03 -6.1694963526e-10
2.0696962170e+03 -7.8810753795e-10
2.0806157049e+03 -8.8356735459e-10
2.0915351927e+03 -9.1407488056e-10
2.1024546806e+03 -8.6072809160e-10
2.1133741684e+03 -7.7229548026e-10
2.1242936562e+03 -6.4343484098e-10
2.1352131441e+03 -5.2528478212e-10
2.1461326319e+03 -3.9202273674e-10
2.1570521198e+03 -2.6763053044e-10
2.1679716076e+03 -1.1035590013e-10
2.1788910955e+03 5.1787183692e-11
2.1898105833e+03 2.4196999621e-10
2.2007300712e+03 4.2742468950e-10
2.2116495590e+03 6.4507179922e-10
2.2225690468e+03 8.8498400615e-10
2.2334885347e+03 1.2010756541e-09
2.2444080225e+03 1.5770848921e-09
2.2553275104e+03 2.0527321583e-09
2.2662469982e+03 2.5766044870e-09
2.2771664861e+03 3.1531082558e-09
2.2880859739e+03 3.6876488174e-09
2.2990054618e+03 4.1592594075e-09
2.3099249496e+03 4.4660879845e-09
2.3208444374e+03 4.6103105425e-09
2.3317639253e+03 4.5331573947e-09
2.3426834131e+03 4.2938740298e-09
2.3536029010e+03 3.8845726937e-09
2.3645223888e+03 3.3890509492e-09
2.3754418767e+03 2.7982588409e-09
2.3863613645e+03 2.1744368196e-09
2.3972808524e+03 1.4990524499e-09
2.4082003402e+03 8.2065396169e-10
2.4191198280e+03 1.3432635018e-10
2.4300393159e+03 -5.1348232009e-10
2.4409588037e+03 -1.0932646526e-09
2.4518782916e+03 -1.5595416400e-09
2.4627977794e+03 -1.8496117076e-09
2.4737172673e+03 -1.9600580495e-09
2.4846367551e+03 -1.8178235769e-09
2.4955562430e+03 -1.4987265105e-09
2.5064757308e+03 -9.0777022499e-10
2.5173952187e+03 -2.0425948043e-10
2.5283147065e+03 7.5418275495e-10
2.5392341943e+03 1.7270637784e-09
2.5501536822e+03 2.9257810770e-09
2.5610731700e+03 4.0410215483e-09
2.5719926579e+03 5.3699352790e-09
2.5829121457e+03 6.5251367560e-09
2.5938316336e+03 7.8688327616e-09
2.6047511214e+03 8.9282981011e-09
2.6156706093e+03 1.0144345225e-08
2.6265900971e+03 1.0991240666e-08
2.6375095849e+03 1.2011108726e-08
2.6484290728e+03 1.2607469198e-08
2.6593485606e+03 1.3362325410e-08
2.6702680485e+03 1.3511757844e-08
2.6811875363e+03 1.3609037280e-08
2.6921070242e+03 1.2674048373e-08
2.7030265120e+03 1.1271790671e-08
2.7139459999e+03 8.2332258413e-09
2.7248654877e+03 4.2735974075e-09
2.7357849755e+03 -1.8461841926e-09
2.7467044634e+03 -8.9616178107e-09
2.7576239512e+03 -1.8060391428e-08
2.7685434391e+03 -2.7090919836e-08
2.7794629269e+03 -3.6734173119e-08
2.7903824148e+03 -5.3987616558e-08
2.8013019026e+03 -3.9810810388e-08
2.8122213905e+03 -4.0024917263e-08
