# Turbulent kinetic energy budget term: Pi (pressure diffusion + dilatation)
# Definition: Pi = -\partial_{x_i}(\overline{p' u_i''}) + \overline{ p' (\partial u_i'' / \partial x_i)}
# Columns: y_plus    Pi^+
3.9832992606e-01 9.6702621569e-03
1.1887924427e+00 1.3276221345e-02
1.9799514194e+00 2.0420927785e-02
2.7719943680e+00 1.9234718642e-02
3.5651283791e+00 1.8360606814e-02
4.3595770683e+00 1.7436458423e-02
5.1555775073e+00 1.5790834566e-02
5.9533773809e+00 1.4437163821e-02
6.7532325235e+00 1.2690109157e-02
7.5554049053e+00 1.1147623985e-02
8.3601610713e+00 9.3974270778e-03
9.1677709952e+00 7.7431067728e-03
9.9785072812e+00 6.0531580612e-03
1.0792644643e+01 4.4071439272e-03
1.1610459588e+01 2.8818641033e-03
1.2432230253e+01 1.3911683739e-03
1.3258236337e+01 1.3871838871e-04
1.4088759099e+01 -1.0733443701e-03
1.4924081400e+01 -1.9798030396e-03
1.5764487770e+01 -2.8512181864e-03
1.6610264487e+01 -3.4060734094e-03
1.7461699667e+01 -3.9486929142e-03
1.8319083357e+01 -4.1977604290e-03
1.9182707631e+01 -4.4606328576e-03
2.0052866693e+01 -4.4668963229e-03
2.0929856971e+01 -4.5088283492e-03
2.1813977219e+01 -4.3313336361e-03
2.2705528623e+01 -4.2040518333e-03
2.3604814899e+01 -3.8945916255e-03
2.4512142398e+01 -3.6518549938e-03
2.5427820210e+01 -3.2693608173e-03
2.6352160271e+01 -2.9716452441e-03
2.7285477466e+01 -2.5728255341e-03
2.8228089740e+01 -2.2720578143e-03
2.9180318202e+01 -1.9041069162e-03
3.0142487241e+01 -1.6424580069e-03
3.1114924627e+01 -1.3334974908e-03
3.2097961633e+01 -1.1220680767e-03
3.3091933139e+01 -8.6839270387e-04
3.4097177753e+01 -6.9816682841e-04
3.5114037921e+01 -4.8753638578e-04
3.6142860047e+01 -3.4605267795e-04
3.7183994610e+01 -1.6559392808e-04
3.8237796283e+01 -4.2621647471e-05
3.9304624055e+01 1.1567214869e-04
4.0384841351e+01 2.2208651151e-04
4.1478816159e+01 3.5316608470e-04
4.2586921152e+01 4.3465183126e-04
4.3709533817e+01 5.4010329247e-04
4.4847036585e+01 6.0855581790e-04
4.5999816957e+01 6.9540087672e-04
4.7168267640e+01 7.3780376609e-04
4.8352786679e+01 7.8129717497e-04
4.9553777591e+01 7.7816768968e-04
5.0771649508e+01 7.7617340369e-04
5.2006817308e+01 7.4155888409e-04
5.3259701767e+01 7.1967516368e-04
5.4530729690e+01 6.8347469616e-04
5.5820334067e+01 6.6552930689e-04
5.7128954215e+01 6.2985494578e-04
5.8457035929e+01 5.9695543155e-04
5.9805031633e+01 5.4324639713e-04
6.1173400536e+01 4.9900302169e-04
6.2562608788e+01 4.4611253238e-04
6.3973129635e+01 3.9679007145e-04
6.5405443587e+01 3.2539674892e-04
6.6860038576e+01 2.4581634816e-04
6.8337410125e+01 1.4996823947e-04
6.9838061516e+01 6.3189398035e-05
7.1362503960e+01 -2.0443348113e-05
7.2911256775e+01 -8.9011011429e-05
7.4484847559e+01 -1.5062353125e-04
7.6083812373e+01 -1.8690863148e-04
7.7708695921e+01 -2.0092327746e-04
7.9360051734e+01 -1.8682478468e-04
8.1038442365e+01 -1.6112884304e-04
8.2744439576e+01 -1.2666285204e-04
8.4478624530e+01 -9.6909681680e-05
8.6241587997e+01 -7.4006870322e-05
8.8033930547e+01 -6.3536347277e-05
8.9856262762e+01 -6.3435044248e-05
9.1709205436e+01 -8.3623551231e-05
9.3593389795e+01 -1.0315311076e-04
9.5509457704e+01 -1.0401706176e-04
9.7458061892e+01 -7.2448060047e-05
9.9439866172e+01 -2.1016746864e-05
1.0145554566e+02 3.0272949617e-05
1.0350578703e+02 5.6092981639e-05
1.0559128871e+02 4.9432208539e-05
1.0771276115e+02 1.5078045022e-05
1.0987092704e+02 -2.6754729321e-05
1.1206652160e+02 -6.4079147819e-05
1.1430029277e+02 -9.1480471907e-05
1.1657300151e+02 -1.1434522207e-04
1.1888542205e+02 -1.4462039519e-04
1.2123834212e+02 -1.9869234592e-04
1.2363256328e+02 -2.7224336106e-04
1.2606890115e+02 -3.5666215059e-04
1.2854818569e+02 -4.3279972446e-04
1.3107126148e+02 -5.0318175809e-04
1.3363898805e+02 -5.6190160498e-04
1.3625224012e+02 -6.0648398836e-04
1.3891190791e+02 -6.3693634420e-04
1.4161889747e+02 -6.3216402271e-04
1.4437413097e+02 -5.9818163167e-04
1.4717854699e+02 -5.6592135762e-04
1.5003310091e+02 -5.4937787178e-04
1.5293876514e+02 -5.4283728491e-04
1.5589652954e+02 -5.2476354413e-04
1.5890740169e+02 -4.7663207616e-04
1.6197240728e+02 -3.9335987211e-04
1.6509259044e+02 -3.0842347993e-04
1.6826901409e+02 -2.4558525072e-04
1.7150276031e+02 -1.9529892327e-04
1.7479493070e+02 -1.2625141395e-04
1.7814664679e+02 -4.0654457474e-05
1.8155905037e+02 1.4918562670e-05
1.8503330390e+02 2.2209824736e-05
1.8857059093e+02 -1.0179779820e-06
1.9217211647e+02 -2.9104755262e-05
1.9583910742e+02 -6.1351988488e-05
1.9957281298e+02 -7.2021713834e-05
2.0337450507e+02 -6.0391410283e-05
2.0724547877e+02 -5.3668389487e-05
2.1118705278e+02 -5.0453190746e-05
2.1520056983e+02 -3.2608673566e-05
2.1928739716e+02 -1.3098715262e-05
2.2344892701e+02 -2.5328484176e-05
2.2768657703e+02 -6.9275974181e-05
2.3200179082e+02 -1.1744158440e-04
2.3639603841e+02 -1.2673560824e-04
2.4087081674e+02 -1.2341668957e-04
2.4542765019e+02 -1.2719205133e-04
2.5006809109e+02 -1.3526095501e-04
2.5479372026e+02 -1.5258512821e-04
2.5960614754e+02 -1.9150191784e-04
2.6450701231e+02 -2.3016904992e-04
2.6949798412e+02 -2.5911118695e-04
2.7458076319e+02 -2.7172487545e-04
2.7975708102e+02 -2.7510808822e-04
2.8502870098e+02 -2.9951448424e-04
2.9039741890e+02 -3.5789858470e-04
2.9586506368e+02 -4.2998293828e-04
3.0143349794e+02 -4.9497334768e-04
3.0710461862e+02 -5.3639901218e-04
3.1288035765e+02 -5.4429287333e-04
3.1876268259e+02 -5.3835891331e-04
3.2475359732e+02 -5.2727335036e-04
3.3085514269e+02 -4.8973712961e-04
3.3706939727e+02 -4.1711350921e-04
3.4339847799e+02 -3.5970308706e-04
3.4984454091e+02 -3.4388046214e-04
3.5640978188e+02 -3.4455521487e-04
3.6309643733e+02 -3.6651253867e-04
3.6990678487e+02 -3.8137290835e-04
3.7684314396e+02 -3.8677271254e-04
3.8390787633e+02 -3.8635026054e-04
3.9110338615e+02 -3.7679420276e-04
3.9843211953e+02 -3.6552388958e-04
4.0589656306e+02 -3.5825510080e-04
4.1349924044e+02 -3.4413379567e-04
4.2124270614e+02 -3.2603836592e-04
4.2912953435e+02 -2.9329302128e-04
4.3716230063e+02 -2.6057089027e-04
4.4534355328e+02 -2.2851401400e-04
4.5367577013e+02 -1.9719605642e-04
4.6216129653e+02 -1.7254214318e-04
4.7080225980e+02 -1.5170224923e-04
4.7960045663e+02 -1.3185719597e-04
4.8855721127e+02 -1.0785974102e-04
4.9767320634e+02 -7.9434234923e-05
5.0694829158e+02 -5.7418440201e-05
5.1638128212e+02 -4.5301362943e-05
5.2596976245e+02 -3.7595093396e-05
5.3570991718e+02 -3.0321030363e-05
5.4559641198e+02 -2.9740495287e-05
5.5562234697e+02 -2.5757773934e-05
5.6577930043e+02 -1.6284906107e-05
5.7605747209e+02 -6.5042002263e-06
5.8644592435e+02 -1.8732096011e-07
5.9693290738e+02 3.7638578557e-06
6.0750624294e+02 7.5978016426e-06
6.1815373393e+02 8.7957422930e-06
6.2886356302e+02 9.9233943767e-06
6.3962464611e+02 1.0625486346e-05
6.5042691296e+02 1.1191972349e-05
6.6126149787e+02 1.1656236696e-05
6.7212083508e+02 1.0958168786e-05
6.8299866488e+02 9.3767247611e-06
6.9388996500e+02 7.7737024289e-06
7.0479082754e+02 6.9519704699e-06
7.1569830307e+02 6.4106844778e-06
7.2661023225e+02 5.6212518267e-06
7.3752508151e+02 4.9307717444e-06
7.4844179417e+02 4.2629469080e-06
7.5935966386e+02 3.6018248176e-06
7.7027823245e+02 2.9757351131e-06
7.8119721165e+02 2.3928994329e-06
7.9211642543e+02 1.8667312369e-06
8.0303576952e+02 1.4062943323e-06
8.1395518398e+02 9.9307400233e-07
8.2487463536e+02 6.3106425175e-07
8.3579410559e+02 2.8597408551e-07
8.4671358515e+02 -2.7984159336e-08
8.5763306920e+02 -3.1923172948e-07
8.6855255537e+02 -5.7560595475e-07
8.7947204248e+02 -7.9696412347e-07
8.9039153002e+02 -9.8358329220e-07
9.0131101774e+02 -1.1472512765e-06
9.1223050554e+02 -1.2919057631e-06
9.2314999336e+02 -1.4270393108e-06
9.3406948120e+02 -1.5429406918e-06
9.4498896904e+02 -1.6439060210e-06
9.5590845688e+02 -1.7223041965e-06
9.6682794473e+02 -1.7850734488e-06
9.7774743257e+02 -1.8297805320e-06
9.8866692042e+02 -1.8685729751e-06
9.9958640826e+02 -1.9035419664e-06
1.0105058961e+03 -1.9434309352e-06
1.0214253840e+03 -1.9821454787e-06
1.0323448718e+03 -2.0198209146e-06
1.0432643596e+03 -2.0496071353e-06
1.0541838475e+03 -2.0695235148e-06
1.0651033353e+03 -2.0749918055e-06
1.0760228232e+03 -2.0658443023e-06
1.0869423110e+03 -2.0425528321e-06
1.0978617989e+03 -2.0098451481e-06
1.1087812867e+03 -1.9712144652e-06
1.1197007746e+03 -1.9329997515e-06
1.1306202624e+03 -1.8984182732e-06
1.1415397502e+03 -1.8722363006e-06
1.1524592381e+03 -1.8467381852e-06
1.1633787259e+03 -1.8198052967e-06
1.1742982138e+03 -1.7822110659e-06
1.1852177016e+03 -1.7459020355e-06
1.1961371895e+03 -1.7091622476e-06
1.2070566773e+03 -1.6853351004e-06
1.2179761652e+03 -1.6649596983e-06
1.2288956530e+03 -1.6591461322e-06
1.2398151408e+03 -1.6537204137e-06
1.2507346287e+03 -1.6545885884e-06
1.2616541165e+03 -1.6442834569e-06
1.2725736044e+03 -1.6317730026e-06
1.2834930922e+03 -1.6102480675e-06
1.2944125801e+03 -1.5964139732e-06
1.3053320679e+03 -1.5898386051e-06
1.3162515558e+03 -1.6046762131e-06
1.3271710436e+03 -1.6351066021e-06
1.3380905314e+03 -1.6826679575e-06
1.3490100193e+03 -1.7340514531e-06
1.3599295071e+03 -1.7870669742e-06
1.3708489950e+03 -1.8375880630e-06
1.3817684828e+03 -1.8936156219e-06
1.3926879707e+03 -1.9566351920e-06
1.4036074585e+03 -2.0310581298e-06
1.4145269464e+03 -2.1101409411e-06
1.4254464342e+03 -2.1922720002e-06
1.4363659220e+03 -2.2688367635e-06
1.4472854099e+03 -2.3388096445e-06
1.4582048977e+03 -2.4008043403e-06
1.4691243856e+03 -2.4598973926e-06
1.4800438734e+03 -2.5203562498e-06
1.4909633613e+03 -2.5864749772e-06
1.5018828491e+03 -2.6574013280e-06
1.5128023370e+03 -2.7351747767e-06
1.5237218248e+03 -2.8135125675e-06
1.5346413126e+03 -2.8952956566e-06
1.5455608005e+03 -2.9712899934e-06
1.5564802883e+03 -3.0456711978e-06
1.5673997762e+03 -3.1068440859e-06
1.5783192640e+03 -3.1587168819e-06
1.5892387519e+03 -3.1919989417e-06
1.6001582397e+03 -3.2172584699e-06
1.6110777276e+03 -3.2333196824e-06
1.6219972154e+03 -3.2528212368e-06
1.6329167032e+03 -3.2737061248e-06
1.6438361911e+03 -3.3039732569e-06
1.6547556789e+03 -3.3381106648e-06
1.6656751668e+03 -3.3797151934e-06
1.6765946546e+03 -3.4189322830e-06
1.6875141425e+03 -3.4591392323e-06
1.6984336303e+03 -3.4904904049e-06
1.7093531182e+03 -3.5208128517e-06
1.7202726060e+03 -3.5377658581e-06
1.7311920938e+03 -3.5513576394e-06
1.7421115817e+03 -3.5488088699e-06
1.7530310695e+03 -3.5461865300e-06
1.7639505574e+03 -3.5351370260e-06
1.7748700452e+03 -3.5321395416e-06
1.7857895331e+03 -3.5266376505e-06
1.7967090209e+03 -3.5275904107e-06
1.8076285088e+03 -3.5205306176e-06
1.8185479966e+03 -3.5112705176e-06
1.8294674844e+03 -3.4878961145e-06
1.8403869723e+03 -3.4603088381e-06
1.8513064601e+03 -3.4215365049e-06
1.8622259480e+03 -3.3847282265e-06
1.8731454358e+03 -3.3451961452e-06
1.8840649237e+03 -3.3140202521e-06
1.8949844115e+03 -3.2881573814e-06
1.9059038994e+03 -3.2743238723e-06
1.9168233872e+03 -3.2700374929e-06
1.9277428750e+03 -3.2758027096e-06
1.9386623629e+03 -3.2882335152e-06
1.9495818507e+03 -3.3017310846e-06
1.9605013386e+03 -3.3144625151e-06
1.9714208264e+03 -3.3191965903e-06
1.9823403143e+03 -3.3229827060e-06
1.9932598021e+03 -3.3193013422e-06
2.0041792900e+03 -3.3227588255e-06
2.0150987778e+03 -3.3213838965e-06
2.0260182656e+03 -3.3315502852e-06
2.0369377535e+03 -3.3349839693e-06
2.0478572413e+03 -3.3464562557e-06
2.0587767292e+03 -3.3450827758e-06
2.0696962170e+03 -3.3479300941e-06
2.0806157049e+03 -3.3396641985e-06
2.0915351927e+03 -3.3418741168e-06
2.1024546806e+03 -3.3407751273e-06
2.1133741684e+03 -3.3522709088e-06
2.1242936562e+03 -3.3570006490e-06
2.1352131441e+03 -3.3624246094e-06
2.1461326319e+03 -3.3478145409e-06
2.1570521198e+03 -3.3216452918e-06
2.1679716076e+03 -3.2708204893e-06
2.1788910955e+03 -3.2105682728e-06
2.1898105833e+03 -3.1339585063e-06
2.2007300712e+03 -3.0562941302e-06
2.2116495590e+03 -2.9750420749e-06
2.2225690468e+03 -2.9019876199e-06
2.2334885347e+03 -2.8417721979e-06
2.2444080225e+03 -2.7989954579e-06
2.2553275104e+03 -2.7827559107e-06
2.2662469982e+03 -2.7873770796e-06
2.2771664861e+03 -2.8250626176e-06
2.2880859739e+03 -2.8787492115e-06
2.2990054618e+03 -2.9616548394e-06
2.3099249496e+03 -3.0448543815e-06
2.3208444374e+03 -3.1418011256e-06
2.3317639253e+03 -3.2186207672e-06
2.3426834131e+03 -3.2918762004e-06
2.3536029010e+03 -3.3364268210e-06
2.3645223888e+03 -3.3722038873e-06
2.3754418767e+03 -3.3890174109e-06
2.3863613645e+03 -3.3986834924e-06
2.3972808524e+03 -3.4053544430e-06
2.4082003402e+03 -3.4018779380e-06
2.4191198280e+03 -3.4107881303e-06
2.4300393159e+03 -3.3959781658e-06
2.4409588037e+03 -3.4046360977e-06
2.4518782916e+03 -3.3700665407e-06
2.4627977794e+03 -3.3752911036e-06
2.4737172673e+03 -3.3266871303e-06
2.4846367551e+03 -3.3437226310e-06
2.4955562430e+03 -3.2973375184e-06
2.5064757308e+03 -3.3389463992e-06
2.5173952187e+03 -3.2962789855e-06
2.5283147065e+03 -3.3590792246e-06
2.5392341943e+03 -3.3101488636e-06
2.5501536822e+03 -3.3882765724e-06
2.5610731700e+03 -3.3266350138e-06
2.5719926579e+03 -3.4253527913e-06
2.5829121457e+03 -3.3539539917e-06
2.5938316336e+03 -3.4870500085e-06
2.6047511214e+03 -3.4062413631e-06
2.6156706093e+03 -3.5767190583e-06
2.6265900971e+03 -3.4709809390e-06
2.6375095849e+03 -3.6665694594e-06
2.6484290728e+03 -3.5199076331e-06
2.6593485606e+03 -3.7354024555e-06
2.6702680485e+03 -3.5578257663e-06
2.6811875363e+03 -3.7974435339e-06
2.6921070242e+03 -3.6157905363e-06
2.7030265120e+03 -3.8653745280e-06
2.7139459999e+03 -3.7186329858e-06
2.7248654877e+03 -3.9333793216e-06
2.7357849755e+03 -3.8936931665e-06
2.7467044634e+03 -3.9806648616e-06
2.7576239512e+03 -4.1411822772e-06
2.7685434391e+03 -3.9493435886e-06
2.7794629269e+03 -4.3721900942e-06
2.7903824148e+03 -3.9456439181e-05
2.8013019026e+03 7.2424069503e-07
2.8122213905e+03 2.0822049433e-04
