# Turbulent kinetic energy budget term: D (viscous diffusion)
# Definition: D = \partial_{x_j} (\overline{\sigma_{ij}' u_i''})
# Columns: y_plus    D^+
3.8773702413e-01 2.1570600478e-01
1.1571785444e+00 1.8634859449e-01
1.9272980036e+00 1.5445467943e-01
2.6982779270e+00 1.1375367697e-01
3.4703198979e+00 6.4554230586e-02
4.2436415854e+00 1.5213725149e-02
5.0184737565e+00 -2.6312819773e-02
5.7950575092e+00 -5.5773645957e-02
6.5736418747e+00 -7.2859226183e-02
7.3544818564e+00 -7.9750784379e-02
8.1378369110e+00 -7.9397563298e-02
8.9239698326e+00 -7.4498411167e-02
9.7131459760e+00 -6.7089342168e-02
1.0505632749e+01 -5.8588819411e-02
1.1301699307e+01 -4.9923918124e-02
1.2101616390e+01 -4.1709712224e-02
1.2905656257e+01 -3.4318753101e-02
1.3714092688e+01 -2.7933521585e-02
1.4527201024e+01 -2.2572616740e-02
1.5345258226e+01 -1.8158618821e-02
1.6168542961e+01 -1.4555557566e-02
1.6997335681e+01 -1.1616671908e-02
1.7831918720e+01 -9.2058089958e-03
1.8672576387e+01 -7.2219748678e-03
1.9519595060e+01 -5.5865373435e-03
2.0373263283e+01 -4.2332934295e-03
2.1233871868e+01 -3.0988614337e-03
2.2101713990e+01 -2.1412263081e-03
2.2977085288e+01 -1.3491504997e-03
2.3860283967e+01 -7.4117042331e-04
2.4751610897e+01 -3.2861180815e-04
2.5651369717e+01 -8.3434919910e-05
2.6559866940e+01 6.7291269747e-05
2.7477412056e+01 1.9820574189e-04
2.8404317634e+01 3.4076815692e-04
2.9340899435e+01 4.7729880638e-04
3.0287476515e+01 5.7782243966e-04
3.1244371336e+01 6.2701876736e-04
3.2211909873e+01 6.3849347347e-04
3.3190421728e+01 6.4267796648e-04
3.4180240242e+01 6.6259850742e-04
3.5181702607e+01 7.0228776469e-04
3.6195149980e+01 7.5199432838e-04
3.7220927603e+01 7.9517293971e-04
3.8259384918e+01 8.1506133038e-04
3.9310875686e+01 7.9560392954e-04
4.0375758108e+01 7.3233280094e-04
4.1454394947e+01 6.3648466232e-04
4.2547153652e+01 5.2726222291e-04
4.3654406483e+01 4.2519547742e-04
4.4776530636e+01 3.4583489173e-04
4.5913908375e+01 2.9410502907e-04
4.7066927159e+01 2.5961994744e-04
4.8235979776e+01 2.2447454909e-04
4.9421464475e+01 1.8758161855e-04
5.0623785105e+01 1.6205122832e-04
5.1843351247e+01 1.5696794592e-04
5.3080578360e+01 1.7223115021e-04
5.4335887919e+01 1.8885454430e-04
5.5609707556e+01 1.7727004482e-04
5.6902471212e+01 1.3630799742e-04
5.8214619280e+01 9.3476614555e-05
5.9546598757e+01 6.8281713424e-05
6.0898863395e+01 6.0864636800e-05
6.2271873857e+01 6.9144900754e-05
6.3666097873e+01 9.4086847054e-05
6.5082010401e+01 1.2561056617e-04
6.6520093784e+01 1.4340479830e-04
6.7980837922e+01 1.3761017307e-04
6.9464740431e+01 1.1764103413e-04
7.0972306819e+01 1.0033374598e-04
7.2504050652e+01 9.2178152582e-05
7.4060493737e+01 7.8320971501e-05
7.5642166290e+01 4.6748482709e-05
7.7249607125e+01 1.7793924024e-05
7.8883363833e+01 2.2216261090e-05
8.0543992970e+01 6.2512409880e-05
8.2232060247e+01 1.0795908038e-04
8.3948140720e+01 1.2400397935e-04
8.5692818992e+01 1.0830842946e-04
8.7466689403e+01 8.3376776791e-05
8.9270356242e+01 7.0186071431e-05
9.1104433945e+01 7.0000802042e-05
9.2969547311e+01 6.9262375284e-05
9.4866331710e+01 7.3438036817e-05
9.6795433299e+01 8.2243978801e-05
9.8757509249e+01 8.0907463923e-05
1.0075322796e+02 7.9598927062e-05
1.0278326929e+02 7.7435941375e-05
1.0484832481e+02 6.0658579780e-05
1.0694909798e+02 4.3147531002e-05
1.0908630446e+02 2.4753004439e-05
1.1126067231e+02 1.6032398154e-06
1.1347294226e+02 -3.9104723022e-06
1.1572386793e+02 1.0315476679e-05
1.1801421613e+02 2.7485033057e-05
1.2034476708e+02 3.5223404734e-05
1.2271631472e+02 3.2310932283e-05
1.2512966693e+02 2.9038090417e-05
1.2758564584e+02 2.5379031296e-05
1.3008508813e+02 1.7244895388e-05
1.3262884523e+02 9.9006936614e-06
1.3521778371e+02 5.8202219713e-06
1.3785278552e+02 5.1335599620e-06
1.4053474831e+02 5.6038129240e-06
1.4326458570e+02 1.2191194627e-05
1.4604322764e+02 2.7626505060e-05
1.4887162071e+02 3.3166375183e-05
1.5175072843e+02 3.0472278912e-05
1.5468153159e+02 3.9726703934e-05
1.5766502861e+02 6.2007835873e-05
1.6070223585e+02 7.2803592332e-05
1.6379418795e+02 4.4904442076e-05
1.6694193823e+02 8.8041273979e-07
1.7014655900e+02 -1.8304032624e-05
1.7340914194e+02 -1.6527585828e-05
1.7673079848e+02 -5.9665185230e-06
1.8011266020e+02 -2.3017197617e-06
1.8355587914e+02 -6.7889030496e-06
1.8706162828e+02 -1.2692759084e-05
1.9063110189e+02 -2.9564457519e-05
1.9426551594e+02 -3.3263742130e-05
1.9796610854e+02 -1.4642669206e-05
2.0173414033e+02 1.4874151605e-05
2.0557089493e+02 3.2007440941e-05
2.0947767937e+02 1.4361072321e-05
2.1345582454e+02 -5.2228500746e-06
2.1750668562e+02 2.0390809814e-06
2.2163164260e+02 1.7761735086e-05
2.2583210068e+02 2.8039006182e-06
2.3010949078e+02 -2.3183584199e-05
2.3446527005e+02 -2.6667950811e-05
2.3890092232e+02 -1.6221466524e-05
2.4341795865e+02 -6.0488522764e-06
2.4801791781e+02 4.5457892289e-06
2.5270236682e+02 2.3172955773e-05
2.5747290150e+02 1.3826847814e-05
2.6233114696e+02 -5.0060001334e-06
2.6727875823e+02 4.3189356720e-06
2.7231742076e+02 1.4261769985e-05
2.7744885101e+02 1.9747512183e-05
2.8267479708e+02 2.1673339401e-05
2.8799703921e+02 1.8209751021e-05
2.9341739051e+02 1.7155194571e-05
2.9893769745e+02 1.5843166497e-06
3.0455984059e+02 -8.7000932405e-06
3.1028573518e+02 -9.5679434056e-07
3.1611733179e+02 1.1545652590e-05
3.2205661702e+02 2.1283419512e-05
3.2810561415e+02 2.1523403218e-05
3.3426638381e+02 8.3252870633e-06
3.4054102473e+02 -4.5805729485e-06
3.4693167437e+02 -1.0044005754e-06
3.5344050967e+02 1.4040074988e-05
3.6006974768e+02 2.3507319585e-05
3.6682164618e+02 2.9731406911e-05
3.7369850410e+02 4.1848653158e-05
3.8070266166e+02 4.2457359676e-05
3.8783649994e+02 3.7453159534e-05
3.9510243939e+02 4.0729527830e-05
4.0250293658e+02 4.5356592123e-05
4.1004047808e+02 5.0673582750e-05
4.1771756960e+02 4.9443424973e-05
4.2553671823e+02 4.8057891683e-05
4.3350040448e+02 5.0287425652e-05
4.4161104030e+02 4.9679922711e-05
4.4987090866e+02 5.3339519077e-05
4.5828208032e+02 5.6670638353e-05
4.6684630417e+02 5.1654841169e-05
4.7556486928e+02 4.9023283899e-05
4.8443844007e+02 4.9742029327e-05
4.9346687031e+02 4.6071090391e-05
5.0264900663e+02 3.9664167105e-05
5.1198249775e+02 3.3294696326e-05
5.2146362975e+02 2.7834847220e-05
5.3108721016e+02 2.6900724104e-05
5.4084652259e+02 2.4858695491e-05
5.5073336928e+02 2.0226452732e-05
5.6073821057e+02 1.5631559260e-05
5.7085039974e+02 1.2306222587e-05
5.8105849942e+02 1.0389230418e-05
5.9135065524e+02 8.9311159970e-06
6.0171499445e+02 7.4561038608e-06
6.1214001398e+02 5.9760520631e-06
6.2261492451e+02 4.6216607541e-06
6.3312992358e+02 3.7975253039e-06
6.4367638126e+02 3.1212520388e-06
6.5424693300e+02 2.4128782483e-06
6.6483548556e+02 2.0123852846e-06
6.7543715021e+02 1.7246627414e-06
6.8604812299e+02 1.3436923306e-06
6.9666553289e+02 1.0450763851e-06
7.0728727802e+02 8.4358023866e-07
7.1791186556e+02 6.9595878771e-07
7.2853826695e+02 5.8381141211e-07
7.3916579460e+02 5.1400084761e-07
7.4979400256e+02 4.4690970451e-07
7.6042261022e+02 3.7473335826e-07
7.7105144622e+02 3.1760355740e-07
7.8168040906e+02 2.7299931554e-07
7.9230944040e+02 2.3714148687e-07
8.0293850768e+02 2.0725563633e-07
8.1356759330e+02 1.8182639679e-07
8.2419668801e+02 1.6007969448e-07
8.3482578710e+02 1.4132704237e-07
8.4545488823e+02 1.2514145958e-07
8.5608399030e+02 1.1115834159e-07
8.6671309277e+02 9.9109858600e-08
8.7734219542e+02 8.8751966587e-08
8.8797129815e+02 7.9810567136e-08
8.9860040090e+02 7.2040852805e-08
9.0922950367e+02 6.5158902013e-08
9.1985860644e+02 5.8963591896e-08
9.3048770921e+02 5.3334552268e-08
9.4111681199e+02 4.8215650110e-08
9.5174591476e+02 4.3608328241e-08
9.6237501753e+02 3.9469075520e-08
9.7300412031e+02 3.5773645823e-08
9.8363322308e+02 3.2436208933e-08
9.9426232586e+02 2.9431575077e-08
1.0048914286e+03 2.6661960039e-08
1.0155205314e+03 2.4147903531e-08
1.0261496342e+03 2.1889600660e-08
1.0367787369e+03 1.9908723890e-08
1.0474078397e+03 1.8220191024e-08
1.0580369425e+03 1.6795926860e-08
1.0686660453e+03 1.5634445893e-08
1.0792951480e+03 1.4694958378e-08
1.0899242508e+03 1.3898945194e-08
1.1005533536e+03 1.3167087462e-08
1.1111824564e+03 1.2449414182e-08
1.1218115591e+03 1.1729287855e-08
1.1324406619e+03 1.1025641478e-08
1.1430697647e+03 1.0330497112e-08
1.1536988675e+03 9.6570448945e-09
1.1643279702e+03 9.0088907419e-09
1.1749570730e+03 8.3921675564e-09
1.1855861758e+03 7.7993074194e-09
1.1962152786e+03 7.2235820227e-09
1.2068443813e+03 6.6550034817e-09
1.2174734841e+03 6.1059599406e-09
1.2281025869e+03 5.5804119973e-09
1.2387316896e+03 5.1049436814e-09
1.2493607924e+03 4.6622372236e-09
1.2599898952e+03 4.2430513414e-09
1.2706189980e+03 3.8014740245e-09
1.2812481007e+03 3.3672679243e-09
1.2918772035e+03 2.9592853390e-09
1.3025063063e+03 2.6619935025e-09
1.3131354091e+03 2.4964972786e-09
1.3237645118e+03 2.4795226558e-09
1.3343936146e+03 2.5201124950e-09
1.3450227174e+03 2.5329190414e-09
1.3556518202e+03 2.4562806929e-09
1.3662809229e+03 2.3230530060e-09
1.3769100257e+03 2.1887939762e-09
1.3875391285e+03 2.0867196648e-09
1.3981682312e+03 2.0124949551e-09
1.4087973340e+03 1.9381594357e-09
1.4194264368e+03 1.8371347395e-09
1.4300555396e+03 1.7030757088e-09
1.4406846423e+03 1.5388874481e-09
1.4513137451e+03 1.3699374788e-09
1.4619428479e+03 1.1998838324e-09
1.4725719507e+03 1.0385567621e-09
1.4832010534e+03 8.6550498580e-10
1.4938301562e+03 6.8333033243e-10
1.5044592590e+03 5.0767428786e-10
1.5150883618e+03 3.6560790453e-10
1.5257174645e+03 2.9630112632e-10
1.5363465673e+03 3.0907917333e-10
1.5469756701e+03 4.3138978196e-10
1.5576047728e+03 6.3544836786e-10
1.5682338756e+03 9.1049447900e-10
1.5788629784e+03 1.1841505201e-09
1.5894920812e+03 1.4327037407e-09
1.6001211839e+03 1.6090149118e-09
1.6107502867e+03 1.7293345226e-09
1.6213793895e+03 1.7774017135e-09
1.6320084923e+03 1.7731709354e-09
1.6426375950e+03 1.7009022834e-09
1.6532666978e+03 1.5936235894e-09
1.6638958006e+03 1.4472275645e-09
1.6745249034e+03 1.3134462522e-09
1.6851540061e+03 1.1712419327e-09
1.6957831089e+03 1.0621715769e-09
1.7064122117e+03 9.4654668124e-10
1.7170413145e+03 8.6941104266e-10
1.7276704172e+03 7.9102904368e-10
1.7382995200e+03 7.6803347513e-10
1.7489286228e+03 7.6528840420e-10
1.7595577255e+03 8.3670424774e-10
1.7701868283e+03 9.0402731487e-10
1.7808159311e+03 9.7777336859e-10
1.7914450339e+03 9.7395867254e-10
1.8020741366e+03 9.4188290505e-10
1.8127032394e+03 8.6584820345e-10
1.8233323422e+03 8.0818483711e-10
1.8339614450e+03 7.5475363477e-10
1.8445905477e+03 7.2108714715e-10
1.8552196505e+03 6.8161201173e-10
1.8658487533e+03 6.2328801997e-10
1.8764778561e+03 5.5006293772e-10
1.8871069588e+03 4.6479031660e-10
1.8977360616e+03 4.1867458266e-10
1.9083651644e+03 4.0441641848e-10
1.9189942671e+03 4.7220389141e-10
1.9296233699e+03 5.5631528950e-10
1.9402524727e+03 6.9791693069e-10
1.9508815755e+03 7.9145535096e-10
1.9615106782e+03 9.0245358710e-10
1.9721397810e+03 9.0058446629e-10
1.9827688838e+03 8.6924603252e-10
1.9933979866e+03 6.8180238828e-10
2.0040270893e+03 4.7677992662e-10
2.0146561921e+03 1.6008342345e-10
2.0252852949e+03 -1.2294821695e-10
2.0359143977e+03 -4.8699452059e-10
2.0465435004e+03 -8.0755067986e-10
2.0571726032e+03 -1.1874287221e-09
2.0678017060e+03 -1.4790616186e-09
2.0784308088e+03 -1.7550961763e-09
2.0890599115e+03 -1.8921002060e-09
2.0996890143e+03 -1.9885514984e-09
2.1103181171e+03 -1.9783622366e-09
2.1209472198e+03 -1.9641647543e-09
2.1315763226e+03 -1.8869759373e-09
2.1422054254e+03 -1.7914940290e-09
2.1528345282e+03 -1.5757785637e-09
2.1634636309e+03 -1.2589113018e-09
2.1740927337e+03 -7.6693765110e-10
2.1847218365e+03 -1.7846833203e-10
2.1953509393e+03 5.5094287059e-10
2.2059800420e+03 1.3306940969e-09
2.2166091448e+03 2.2471047406e-09
2.2272382476e+03 3.2154549781e-09
2.2378673504e+03 4.2983261434e-09
2.2484964531e+03 5.3367722599e-09
2.2591255559e+03 6.3211247493e-09
2.2697546587e+03 7.0689201334e-09
2.2803837614e+03 7.5949672493e-09
2.2910128642e+03 7.7863473831e-09
2.3016419670e+03 7.7294828229e-09
2.3122710698e+03 7.3571610670e-09
2.3229001725e+03 6.8007192013e-09
2.3335292753e+03 5.9920231375e-09
2.3441583781e+03 5.0979221303e-09
2.3547874809e+03 4.0182914077e-09
2.3654165836e+03 2.9236700670e-09
2.3760456864e+03 1.6815717027e-09
2.3866747892e+03 4.7074792633e-10
2.3973038920e+03 -7.8124743386e-10
2.4079329947e+03 -1.8611451912e-09
2.4185620975e+03 -2.7380068516e-09
2.4291912003e+03 -3.2495234184e-09
2.4398203030e+03 -3.3085406215e-09
2.4504494058e+03 -2.9107827428e-09
2.4610785086e+03 -1.9302037687e-09
2.4717076114e+03 -5.9096625067e-10
2.4823367141e+03 1.3019450570e-09
2.4929658169e+03 3.2705653203e-09
2.5035949197e+03 5.6671698084e-09
2.5142240225e+03 7.7925408107e-09
2.5248531252e+03 1.0282666410e-08
2.5354822280e+03 1.2275123098e-08
2.5461113308e+03 1.4732252349e-08
2.5567404336e+03 1.6579356286e-08
2.5673695363e+03 1.9019087372e-08
2.5779986391e+03 2.0706068407e-08
2.5886277419e+03 2.3060938455e-08
2.5992568447e+03 2.4425789324e-08
2.6098859474e+03 2.6314299761e-08
2.6205150502e+03 2.6550473596e-08
2.6311441530e+03 2.6527775168e-08
2.6417732557e+03 2.3373992745e-08
2.6524023585e+03 1.8378375569e-08
2.6630314613e+03 8.2025743542e-09
2.6736605641e+03 -5.1764400306e-09
2.6842896668e+03 -2.4399412546e-08
2.6949187696e+03 -4.5159812490e-08
2.7055478724e+03 -6.8336721958e-08
2.7161769752e+03 -1.0721312606e-07
2.7268060779e+03 -8.2087503934e-08
2.7374351807e+03 -8.0951633710e-08
