# Turbulent kinetic energy budget term: TT (triple-correlation transport)
# Definition: TT = -\partial_{x_j} [ 0.5 \bar{\rho} \widetilde{u_i'' u_i'' u_j''} ]
# Columns: y_plus    TT^+
3.8773702413e-01 -1.7844840255e-03
1.1571785444e+00 1.7978442518e-03
1.9272980036e+00 1.1346203203e-02
2.6982779270e+00 2.6792598204e-02
3.4703198979e+00 4.2351729645e-02
4.2436415854e+00 5.1995421247e-02
5.0184737565e+00 5.1673755248e-02
5.7950575092e+00 4.1400403932e-02
6.5736418747e+00 2.4005513948e-02
7.3544818564e+00 3.3195260263e-03
8.1378369110e+00 -1.7276643930e-02
8.9239698326e+00 -3.5575095754e-02
9.7131459760e+00 -5.0368091180e-02
1.0505632749e+01 -6.1342031844e-02
1.1301699307e+01 -6.8581345259e-02
1.2101616390e+01 -7.2538482016e-02
1.2905656257e+01 -7.3682424391e-02
1.3714092688e+01 -7.2620520118e-02
1.4527201024e+01 -6.9876818596e-02
1.5345258226e+01 -6.6006310493e-02
1.6168542961e+01 -6.1414307157e-02
1.6997335681e+01 -5.6461289824e-02
1.7831918720e+01 -5.1366951074e-02
1.8672576387e+01 -4.6309883136e-02
1.9519595060e+01 -4.1383749398e-02
2.0373263283e+01 -3.6673606745e-02
2.1233871868e+01 -3.2227608658e-02
2.2101713990e+01 -2.8083830849e-02
2.2977085288e+01 -2.4253625849e-02
2.3860283967e+01 -2.0732891168e-02
2.4751610897e+01 -1.7521988298e-02
2.5651369717e+01 -1.4626341578e-02
2.6559866940e+01 -1.2045667581e-02
2.7477412056e+01 -9.7556448082e-03
2.8404317634e+01 -7.7435939776e-03
2.9340899435e+01 -5.9889267184e-03
3.0287476515e+01 -4.4642867000e-03
3.1244371336e+01 -3.1181182255e-03
3.2211909873e+01 -1.9162649764e-03
3.3190421728e+01 -8.3373399261e-04
3.4180240242e+01 1.3111419507e-04
3.5181702607e+01 9.9566571693e-04
3.6195149980e+01 1.7810189914e-03
3.7220927603e+01 2.5045019085e-03
3.8259384918e+01 3.1415956437e-03
3.9310875686e+01 3.6584854011e-03
4.0375758108e+01 4.0317195564e-03
4.1454394947e+01 4.2872692433e-03
4.2547153652e+01 4.4704569757e-03
4.3654406483e+01 4.6160294144e-03
4.4776530636e+01 4.7319812707e-03
4.5913908375e+01 4.8269979735e-03
4.7066927159e+01 4.9024819489e-03
4.8235979776e+01 4.9556842763e-03
4.9421464475e+01 4.9690171505e-03
5.0623785105e+01 4.9373204300e-03
5.1843351247e+01 4.8618168703e-03
5.3080578360e+01 4.7345373065e-03
5.4335887919e+01 4.5545210342e-03
5.5609707556e+01 4.3644986525e-03
5.6902471212e+01 4.2245304994e-03
5.8214619280e+01 4.1776895789e-03
5.9546598757e+01 4.2193432133e-03
6.0898863395e+01 4.3109510164e-03
6.2271873857e+01 4.3973370359e-03
6.3666097873e+01 4.4249525398e-03
6.5082010401e+01 4.3605616312e-03
6.6520093784e+01 4.2216774820e-03
6.7980837922e+01 4.0650655380e-03
6.9464740431e+01 3.9313217663e-03
7.0972306819e+01 3.8170468793e-03
7.2504050652e+01 3.7130785522e-03
7.4060493737e+01 3.6369184156e-03
7.5642166290e+01 3.5835151657e-03
7.7249607125e+01 3.5166709825e-03
7.8883363833e+01 3.4320524789e-03
8.0543992970e+01 3.3222091062e-03
8.2232060247e+01 3.1640532173e-03
8.3948140720e+01 2.9799994610e-03
8.5692818992e+01 2.8300977075e-03
8.7466689403e+01 2.7348839502e-03
8.9270356242e+01 2.6479338372e-03
9.1104433945e+01 2.5181812573e-03
9.2969547311e+01 2.3575035817e-03
9.4866331710e+01 2.2135473588e-03
9.6795433299e+01 2.1011709089e-03
9.8757509249e+01 2.0062253421e-03
1.0075322796e+02 1.8770363891e-03
1.0278326929e+02 1.6914778318e-03
1.0484832481e+02 1.5280915395e-03
1.0694909798e+02 1.4328012592e-03
1.0908630446e+02 1.3799236270e-03
1.1126067231e+02 1.3298589925e-03
1.1347294226e+02 1.2020623295e-03
1.1572386793e+02 9.7367301848e-04
1.1801421613e+02 7.1987342472e-04
1.2034476708e+02 5.0307201954e-04
1.2271631472e+02 3.6162715928e-04
1.2512966693e+02 2.9830440553e-04
1.2758564584e+02 2.6874014858e-04
1.3008508813e+02 2.4518514217e-04
1.3262884523e+02 2.4410613445e-04
1.3521778371e+02 2.6334978221e-04
1.3785278552e+02 2.7584346900e-04
1.4053474831e+02 2.6282863219e-04
1.4326458570e+02 2.5045492647e-04
1.4604322764e+02 2.5575827887e-04
1.4887162071e+02 2.4362374050e-04
1.5175072843e+02 2.0993209871e-04
1.5468153159e+02 1.3928395053e-04
1.5766502861e+02 1.1194319989e-05
1.6070223585e+02 -1.1640862523e-04
1.6379418795e+02 -1.9030517730e-04
1.6694193823e+02 -2.4090210681e-04
1.7014655900e+02 -3.2703406920e-04
1.7340914194e+02 -3.8124760241e-04
1.7673079848e+02 -4.2566818556e-04
1.8011266020e+02 -4.6544029185e-04
1.8355587914e+02 -4.3227402329e-04
1.8706162828e+02 -4.0331677679e-04
1.9063110189e+02 -3.6591975274e-04
1.9426551594e+02 -3.5044239451e-04
1.9796610854e+02 -3.6434205711e-04
2.0173414033e+02 -4.3327880578e-04
2.0557089493e+02 -5.2811612608e-04
2.0947767937e+02 -5.1369874716e-04
2.1345582454e+02 -4.8362404897e-04
2.1750668562e+02 -5.0329824059e-04
2.2163164260e+02 -5.0270788015e-04
2.2583210068e+02 -4.0409041384e-04
2.3010949078e+02 -2.0776651893e-04
2.3446527005e+02 -1.5571661584e-05
2.3890092232e+02 1.5873346818e-04
2.4341795865e+02 3.4759799344e-04
2.4801791781e+02 5.1445622239e-04
2.5270236682e+02 5.9800595140e-04
2.5747290150e+02 6.2186773993e-04
2.6233114696e+02 6.9835538067e-04
2.6727875823e+02 7.4359202412e-04
2.7231742076e+02 7.4587480932e-04
2.7744885101e+02 8.1265439588e-04
2.8267479708e+02 8.4924809734e-04
2.8799703921e+02 8.1215688511e-04
2.9341739051e+02 7.8553374596e-04
2.9893769745e+02 8.2927356522e-04
3.0455984059e+02 1.0527966438e-03
3.1028573518e+02 1.2634158251e-03
3.1611733179e+02 1.3490643343e-03
3.2205661702e+02 1.4224193659e-03
3.2810561415e+02 1.4681186906e-03
3.3426638381e+02 1.5611779758e-03
3.4054102473e+02 1.7464913809e-03
3.4693167437e+02 1.9276843409e-03
3.5344050967e+02 2.0169570724e-03
3.6006974768e+02 2.1110665175e-03
3.6682164618e+02 2.2096786306e-03
3.7369850410e+02 2.2878997189e-03
3.8070266166e+02 2.3463237493e-03
3.8783649994e+02 2.3747717414e-03
3.9510243939e+02 2.3865279021e-03
4.0250293658e+02 2.3968047044e-03
4.1004047808e+02 2.3845763562e-03
4.1771756960e+02 2.3358788713e-03
4.2553671823e+02 2.2856478802e-03
4.3350040448e+02 2.2030474802e-03
4.4161104030e+02 2.1034492786e-03
4.4987090866e+02 1.9837414516e-03
4.5828208032e+02 1.7722206368e-03
4.6684630417e+02 1.5450187133e-03
4.7556486928e+02 1.3638980675e-03
4.8443844007e+02 1.2061571505e-03
4.9346687031e+02 1.0469808844e-03
5.0264900663e+02 9.0319257284e-04
5.1198249775e+02 7.5593024595e-04
5.2146362975e+02 6.2100300281e-04
5.3108721016e+02 5.0341516452e-04
5.4084652259e+02 3.9280269392e-04
5.5073336928e+02 3.0230398667e-04
5.6073821057e+02 2.4223846701e-04
5.7085039974e+02 1.9157555247e-04
5.8105849942e+02 1.4935027109e-04
5.9135065524e+02 1.1213316536e-04
6.0171499445e+02 7.9795534279e-05
6.1214001398e+02 5.6707437722e-05
6.2261492451e+02 4.3512003302e-05
6.3312992358e+02 3.2984478980e-05
6.4367638126e+02 2.3080198039e-05
6.5424693300e+02 1.6122364997e-05
6.6483548556e+02 1.1292395921e-05
6.7543715021e+02 7.3781351611e-06
6.8604812299e+02 4.7119134323e-06
6.9666553289e+02 3.3574636381e-06
7.0728727802e+02 2.8940689001e-06
7.1791186556e+02 2.4832485918e-06
7.2853826695e+02 1.9830300742e-06
7.3916579460e+02 1.4292080622e-06
7.4979400256e+02 9.3199416870e-07
7.6042261022e+02 6.3921782440e-07
7.7105144622e+02 4.7593041902e-07
7.8168040906e+02 3.7055951225e-07
7.9230944040e+02 2.9640941715e-07
8.0293850768e+02 2.4086237192e-07
8.1356759330e+02 1.9838837652e-07
8.2419668801e+02 1.6537982806e-07
8.3482578710e+02 1.3929239276e-07
8.4545488823e+02 1.1846229382e-07
8.5608399030e+02 1.0154814763e-07
8.6671309277e+02 8.7549765990e-08
8.7734219542e+02 7.5751077447e-08
8.8797129815e+02 6.5628118891e-08
8.9860040090e+02 5.6866505462e-08
9.0922950367e+02 4.9291741160e-08
9.1985860644e+02 4.2878968756e-08
9.3048770921e+02 3.7526004251e-08
9.4111681199e+02 3.3049113318e-08
9.5174591476e+02 2.9427034698e-08
9.6237501753e+02 2.6411321551e-08
9.7300412031e+02 2.3920917102e-08
9.8363322308e+02 2.1778021097e-08
9.9426232586e+02 1.9931921819e-08
1.0048914286e+03 1.8335531775e-08
1.0155205314e+03 1.6932611453e-08
1.0261496342e+03 1.5645131184e-08
1.0367787369e+03 1.4479467270e-08
1.0474078397e+03 1.3403299494e-08
1.0580369425e+03 1.2476752263e-08
1.0686660453e+03 1.1670331660e-08
1.0792951480e+03 1.1008051532e-08
1.0899242508e+03 1.0440670931e-08
1.1005533536e+03 9.9704171788e-09
1.1111824564e+03 9.5812878070e-09
1.1218115591e+03 9.1383948647e-09
1.1324406619e+03 8.7326358285e-09
1.1430697647e+03 8.2858880767e-09
1.1536988675e+03 7.8588779604e-09
1.1643279702e+03 7.4512946881e-09
1.1749570730e+03 7.0757337285e-09
1.1855861758e+03 6.7600746194e-09
1.1962152786e+03 6.5189993666e-09
1.2068443813e+03 6.3375436856e-09
1.2174734841e+03 6.1792591051e-09
1.2281025869e+03 6.1110298218e-09
1.2387316896e+03 6.0794596904e-09
1.2493607924e+03 6.0818823272e-09
1.2599898952e+03 6.0688541630e-09
1.2706189980e+03 6.0355073008e-09
1.2812481007e+03 5.9407497863e-09
1.2918772035e+03 5.8836974442e-09
1.3025063063e+03 5.7500972440e-09
1.3131354091e+03 5.6501727080e-09
1.3237645118e+03 5.5153436052e-09
1.3343936146e+03 5.4238521319e-09
1.3450227174e+03 5.3680716047e-09
1.3556518202e+03 5.3328907231e-09
1.3662809229e+03 5.3543253898e-09
1.3769100257e+03 5.4048995489e-09
1.3875391285e+03 5.4080294260e-09
1.3981682312e+03 5.3918009924e-09
1.4087973340e+03 5.3450660425e-09
1.4194264368e+03 5.2373625853e-09
1.4300555396e+03 5.1639345485e-09
1.4406846423e+03 5.0321183420e-09
1.4513137451e+03 4.9397455607e-09
1.4619428479e+03 4.8248715394e-09
1.4725719507e+03 4.7461193130e-09
1.4832010534e+03 4.6460283182e-09
1.4938301562e+03 4.5431972641e-09
1.5044592590e+03 4.3810308786e-09
1.5150883618e+03 4.2054248643e-09
1.5257174645e+03 4.0511011694e-09
1.5363465673e+03 3.9228572859e-09
1.5469756701e+03 3.7663059493e-09
1.5576047728e+03 3.6693094875e-09
1.5682338756e+03 3.5454632834e-09
1.5788629784e+03 3.4240433064e-09
1.5894920812e+03 3.2979653115e-09
1.6001211839e+03 3.1510564007e-09
1.6107502867e+03 2.9726165687e-09
1.6213793895e+03 2.8430231123e-09
1.6320084923e+03 2.6748095370e-09
1.6426375950e+03 2.4777776213e-09
1.6532666978e+03 2.3261789021e-09
1.6638958006e+03 2.1651697004e-09
1.6745249034e+03 2.0811468268e-09
1.6851540061e+03 2.0147588924e-09
1.6957831089e+03 2.0544283726e-09
1.7064122117e+03 2.1716177695e-09
1.7170413145e+03 2.3638359586e-09
1.7276704172e+03 2.5640399974e-09
1.7382995200e+03 2.8382989258e-09
1.7489286228e+03 3.0599566791e-09
1.7595577255e+03 3.2636401252e-09
1.7701868283e+03 3.4449685506e-09
1.7808159311e+03 3.5951599294e-09
1.7914450339e+03 3.7257765072e-09
1.8020741366e+03 3.8354033087e-09
1.8127032394e+03 3.9262245501e-09
1.8233323422e+03 3.9955085189e-09
1.8339614450e+03 4.0337266249e-09
1.8445905477e+03 3.9811925121e-09
1.8552196505e+03 3.9083583581e-09
1.8658487533e+03 3.7730530184e-09
1.8764778561e+03 3.5882750996e-09
1.8871069588e+03 3.3601601037e-09
1.8977360616e+03 3.1083050967e-09
1.9083651644e+03 2.8863249439e-09
1.9189942671e+03 2.6565527517e-09
1.9296233699e+03 2.4606243573e-09
1.9402524727e+03 2.2974984732e-09
1.9508815755e+03 2.2189909166e-09
1.9615106782e+03 2.1627390304e-09
1.9721397810e+03 2.2113079203e-09
1.9827688838e+03 2.3575584149e-09
1.9933979866e+03 2.5412453751e-09
2.0040270893e+03 2.7986424708e-09
2.0146561921e+03 3.0777774654e-09
2.0252852949e+03 3.3714838495e-09
2.0359143977e+03 3.6771176258e-09
2.0465435004e+03 3.9235022720e-09
2.0571726032e+03 4.0604392645e-09
2.0678017060e+03 4.0796701065e-09
2.0784308088e+03 3.9608909544e-09
2.0890599115e+03 3.8266994144e-09
2.0996890143e+03 3.6501788062e-09
2.1103181171e+03 3.4556687197e-09
2.1209472198e+03 3.3538745530e-09
2.1315763226e+03 3.2452758411e-09
2.1422054254e+03 3.2455604019e-09
2.1528345282e+03 3.2690329733e-09
2.1634636309e+03 3.2877927642e-09
2.1740927337e+03 3.2805959749e-09
2.1847218365e+03 3.2703680230e-09
2.1953509393e+03 3.2258584736e-09
2.2059800420e+03 3.2223406154e-09
2.2166091448e+03 3.1345777278e-09
2.2272382476e+03 3.1094619039e-09
2.2378673504e+03 3.0418130389e-09
2.2484964531e+03 2.9409408957e-09
2.2591255559e+03 2.8604238211e-09
2.2697546587e+03 2.7970786850e-09
2.2803837614e+03 2.7039581846e-09
2.2910128642e+03 2.6668934643e-09
2.3016419670e+03 2.6029422027e-09
2.3122710698e+03 2.5688505313e-09
2.3229001725e+03 2.5456037153e-09
2.3335292753e+03 2.5169393982e-09
2.3441583781e+03 2.5180581589e-09
2.3547874809e+03 2.5323841527e-09
2.3654165836e+03 2.5948312005e-09
2.3760456864e+03 2.6682563795e-09
2.3866747892e+03 2.7915153313e-09
2.3973038920e+03 2.9114992531e-09
2.4079329947e+03 3.0778083161e-09
2.4185620975e+03 3.2130240692e-09
2.4291912003e+03 3.3061609549e-09
2.4398203030e+03 3.4319085888e-09
2.4504494058e+03 3.4846659354e-09
2.4610785086e+03 3.5244597444e-09
2.4717076114e+03 3.5485444299e-09
2.4823367141e+03 3.5152591460e-09
2.4929658169e+03 3.4424606087e-09
2.5035949197e+03 3.2438580540e-09
2.5142240225e+03 3.0159066721e-09
2.5248531252e+03 2.7287856311e-09
2.5354822280e+03 2.4680523251e-09
2.5461113308e+03 2.1648049137e-09
2.5567404336e+03 1.9659097736e-09
2.5673695363e+03 1.7019832877e-09
2.5779986391e+03 1.6491208059e-09
2.5886277419e+03 1.5403569577e-09
2.5992568447e+03 1.7016686876e-09
2.6098859474e+03 1.8189999126e-09
2.6205150502e+03 2.1771224272e-09
2.6311441530e+03 2.4619186600e-09
2.6417732557e+03 2.9277121536e-09
2.6524023585e+03 3.3396395073e-09
2.6630314613e+03 3.9565377169e-09
2.6736605641e+03 4.5738234955e-09
2.6842896668e+03 5.2435661600e-09
2.6949187696e+03 6.0032502539e-09
2.7055478724e+03 6.5600481274e-09
2.7161769752e+03 8.5391920105e-09
2.7268060779e+03 6.8906395120e-09
2.7374351807e+03 7.9484678850e-09
