# Reynolds stress Morkovin's scaling 
# Columns: y_plus    -rho v''w''/tau_wall
3.8646263475e-01 -2.8685922988e-07
1.1533752036e+00 -7.3557808774e-06
1.9209634831e+00 -3.2859425522e-05
2.6894093988e+00 -8.4399702261e-05
3.4589138713e+00 -1.6036209499e-04
4.2296938542e+00 -2.5058717612e-04
5.0019793562e+00 -3.4429707425e-04
5.7760106829e+00 -4.3731029512e-04
6.5520360469e+00 -5.3401979784e-04
7.3303096133e+00 -6.3989083137e-04
8.1110899864e+00 -7.5931261617e-04
8.8946390963e+00 -8.9458863852e-04
9.6812214258e+00 -1.0494432210e-03
1.0471103504e+01 -1.2240480973e-03
1.1264553601e+01 -1.4152928712e-03
1.2061841567e+01 -1.6136618610e-03
1.2863238767e+01 -1.8080596959e-03
1.3669018081e+01 -1.9842023740e-03
1.4479453944e+01 -2.1278273652e-03
1.5294822408e+01 -2.2216411654e-03
1.6115401223e+01 -2.2495934562e-03
1.6941469919e+01 -2.1968905393e-03
1.7773309905e+01 -2.0564775988e-03
1.8611204551e+01 -1.8308503175e-03
1.9455439297e+01 -1.5359942510e-03
2.0306301738e+01 -1.1958175492e-03
2.1164081729e+01 -8.3591060948e-04
2.2029071483e+01 -4.7395172287e-04
2.2901565666e+01 -1.1726682814e-04
2.3781861504e+01 2.3648932982e-04
2.4670258877e+01 5.9573875359e-04
2.5567060427e+01 9.7172758166e-04
2.6472571660e+01 1.3725704877e-03
2.7387101046e+01 1.7988086178e-03
2.8310960130e+01 2.2433245262e-03
2.9244463634e+01 2.6935461957e-03
3.0187929564e+01 3.1339247766e-03
3.1141679324e+01 3.5484540231e-03
3.2106037817e+01 3.9237633154e-03
3.3081333562e+01 4.2488769313e-03
3.4067898803e+01 4.5170860984e-03
3.5066069625e+01 4.7275748930e-03
3.6076186064e+01 4.8837860984e-03
3.7098592226e+01 4.9863728110e-03
3.8133636406e+01 5.0289668146e-03
3.9181671201e+01 4.9954798413e-03
4.0243053635e+01 4.8630431324e-03
4.1318145279e+01 4.6082166145e-03
4.2407312375e+01 4.2192796265e-03
4.3510925957e+01 3.7027389242e-03
4.4629361984e+01 3.0797164462e-03
4.5763001462e+01 2.3745309024e-03
4.6912230577e+01 1.6095235934e-03
4.8077440826e+01 8.0681182264e-04
4.9259029150e+01 -7.5696171662e-06
5.0457398069e+01 -8.0217332708e-04
5.1672955819e+01 -1.5459603471e-03
5.2906116493e+01 -2.2176940486e-03
5.4157300179e+01 -2.8070672553e-03
5.5426933107e+01 -3.3032679351e-03
5.6715447790e+01 -3.6844803388e-03
5.8023283173e+01 -3.9161159282e-03
5.9350884784e+01 -3.9589862797e-03
6.0698704885e+01 -3.7882135461e-03
6.2067202624e+01 -3.4143310126e-03
6.3456844193e+01 -2.8872208902e-03
6.4868102990e+01 -2.2799042486e-03
6.6301459772e+01 -1.6560998799e-03
6.7757402829e+01 -1.0442580521e-03
6.9236428142e+01 -4.3918347222e-04
7.0739039556e+01 1.6754704132e-04
7.2265748952e+01 7.5846541295e-04
7.3817076418e+01 1.2816099755e-03
7.5393550430e+01 1.6766694554e-03
7.6995708031e+01 1.9067886508e-03
7.8624095011e+01 1.9648266134e-03
8.0279266098e+01 1.8662865215e-03
8.1961785143e+01 1.6421087571e-03
8.3672225313e+01 1.3359479096e-03
8.5411169286e+01 1.0296828323e-03
8.7179209453e+01 8.2169973696e-04
8.8976948115e+01 7.4828401759e-04
9.0804997688e+01 7.5607045270e-04
9.2663980918e+01 7.4540709144e-04
9.4554531086e+01 6.2764196309e-04
9.6477292228e+01 3.4924574971e-04
9.8432919351e+01 -1.1849025164e-04
1.0042207866e+02 -7.6809058953e-04
1.0244544778e+02 -1.5350180567e-03
1.0450371600e+02 -2.3215735632e-03
1.0659758449e+02 -3.0352340541e-03
1.0872776654e+02 -3.6080345252e-03
1.1089498782e+02 -3.9970543633e-03
1.1309998661e+02 -4.2128120839e-03
1.1534351409e+02 -4.3045367634e-03
1.1762633451e+02 -4.3096003667e-03
1.1994922556e+02 -4.2582831062e-03
1.2231297854e+02 -4.1737753210e-03
1.2471839870e+02 -4.0698708024e-03
1.2716630546e+02 -3.9295509355e-03
1.2965753273e+02 -3.7205175725e-03
1.3219292918e+02 -3.4224776460e-03
1.3477335850e+02 -3.0786158889e-03
1.3739969976e+02 -2.7618029559e-03
1.4007284764e+02 -2.4742529652e-03
1.4279371277e+02 -2.1937803997e-03
1.4556322205e+02 -1.9593807585e-03
1.4838231894e+02 -1.8796720333e-03
1.5125196379e+02 -1.9970945497e-03
1.5417313418e+02 -2.2683493317e-03
1.5714682523e+02 -2.6011091780e-03
1.6017404996e+02 -2.8862797312e-03
1.6325583964e+02 -3.0365401860e-03
1.6639324409e+02 -3.1205409314e-03
1.6958733211e+02 -3.1026962887e-03
1.7283919180e+02 -2.9537925975e-03
1.7614993094e+02 -2.7773330100e-03
1.7952067737e+02 -2.3859750324e-03
1.8295257936e+02 -1.5072675109e-03
1.8644680602e+02 -2.1823566298e-04
1.9000454771e+02 1.1903325808e-03
1.9362701641e+02 2.5056261107e-03
1.9731544613e+02 3.6179534008e-03
2.0107109340e+02 4.4693449584e-03
2.0489523759e+02 5.0066242985e-03
2.0878918146e+02 5.1455491534e-03
2.1275425151e+02 4.9374803209e-03
2.1679179849e+02 4.5097462058e-03
2.2090319782e+02 4.0208297893e-03
2.2508985010e+02 3.5326663868e-03
2.2935318154e+02 2.9584985904e-03
2.3369464451e+02 2.4349447818e-03
2.3811571797e+02 2.1418090632e-03
2.4261790799e+02 1.9827114285e-03
2.4720274829e+02 1.6690967686e-03
2.5187180076e+02 1.2287336438e-03
2.5662665594e+02 7.9142901620e-04
2.6146893364e+02 3.5496156554e-04
2.6640028341e+02 -9.2198109446e-05
2.7142238519e+02 -2.3702867482e-04
2.7653694978e+02 -6.8393475834e-05
2.8174571954e+02 5.8130641470e-05
2.8705046887e+02 1.0610699292e-04
2.9245300490e+02 -5.8143965024e-05
2.9795516805e+02 -4.3765943829e-04
3.0355883269e+02 -1.2914300753e-03
3.0926590777e+02 -2.1910515958e-03
3.1507833746e+02 -2.6622911116e-03
3.2099810182e+02 -2.5060475447e-03
3.2702721749e+02 -1.9077846717e-03
3.3316773833e+02 -1.4672116795e-03
3.3942175615e+02 -1.4308526514e-03
3.4579140141e+02 -1.5132086021e-03
3.5227884389e+02 -1.4553706118e-03
3.5888629334e+02 -1.1235515091e-03
3.6561600013e+02 -4.7455291987e-04
3.7247025564e+02 3.1194866148e-04
3.7945139238e+02 7.1007744717e-04
3.8656178361e+02 5.8103298121e-04
3.9380384183e+02 2.7742983521e-04
4.0118001554e+02 9.0411410210e-06
4.0869278313e+02 -3.2500670510e-04
4.1634464207e+02 -8.2320811624e-04
4.2413809122e+02 -1.1904134983e-03
4.3207560294e+02 -1.1286649771e-03
4.4015958123e+02 -1.0741693971e-03
4.4839230158e+02 -1.0268360456e-03
4.5677582794e+02 -8.9254977962e-04
4.6531190345e+02 -9.4135399174e-04
4.7400181292e+02 -1.0257659830e-03
4.8284621863e+02 -8.3159115501e-04
4.9184497480e+02 -6.2008913785e-04
5.0099693186e+02 -5.3677082081e-04
5.1029974625e+02 -4.3528065309e-04
5.1974971627e+02 -4.1760291974e-04
5.2934166651e+02 -5.1736075982e-04
5.3906890265e+02 -5.6704844550e-04
5.4892325388e+02 -4.2538042399e-04
5.5889521190e+02 -2.0869752564e-04
5.6897416497e+02 -3.3022359686e-05
5.7914871332e+02 5.5757505499e-05
5.8940704153e+02 1.0233849649e-04
5.9973731589e+02 1.1802317621e-04
6.1012807113e+02 1.0531542700e-04
6.2056855339e+02 1.0379877503e-04
6.3104899243e+02 9.3208007051e-05
6.4156078668e+02 6.0531225584e-05
6.5209659581e+02 2.6859236193e-05
6.6265034658e+02 1.4514267557e-06
6.7321716636e+02 -1.4958502173e-05
6.8379326367e+02 -2.4137598305e-05
6.9437577694e+02 -2.7099131880e-05
7.0496261119e+02 -2.2939174247e-05
7.1555227852e+02 -1.9121103579e-05
7.2614375372e+02 -1.7516288099e-05
7.3673635149e+02 -1.5961675321e-05
7.4732962734e+02 -1.5739803041e-05
7.5792330156e+02 -1.5534883490e-05
7.6851720338e+02 -1.4628617145e-05
7.7911123163e+02 -1.3551517436e-05
7.8970532814e+02 -1.2502882131e-05
8.0029946048e+02 -1.1501698315e-05
8.1089361110e+02 -1.0568437470e-05
8.2148777078e+02 -9.7120105977e-06
8.3208193482e+02 -8.9330857737e-06
8.4267610090e+02 -8.2268290617e-06
8.5327026791e+02 -7.5831747707e-06
8.6386443532e+02 -6.9931659819e-06
8.7445860292e+02 -6.4429542394e-06
8.8505277058e+02 -5.9265860808e-06
8.9564693828e+02 -5.4353960916e-06
9.0624110599e+02 -4.9683269581e-06
9.1683527370e+02 -4.5253776216e-06
9.2742944141e+02 -4.1124243278e-06
9.3802360913e+02 -3.7392891484e-06
9.4861777684e+02 -3.4139275974e-06
9.5921194456e+02 -3.1452236910e-06
9.6980611227e+02 -2.9307069294e-06
9.8040027999e+02 -2.7703923130e-06
9.9099444770e+02 -2.6482066357e-06
1.0015886154e+03 -2.5574446035e-06
1.0121827831e+03 -2.4744803547e-06
1.0227769508e+03 -2.3928021345e-06
1.0333711186e+03 -2.2942885737e-06
1.0439652863e+03 -2.1837786210e-06
1.0545594540e+03 -2.0547634112e-06
1.0651536217e+03 -1.9204956116e-06
1.0757477894e+03 -1.7773102289e-06
1.0863419571e+03 -1.6404503567e-06
1.0969361249e+03 -1.5060106741e-06
1.1075302926e+03 -1.3881927819e-06
1.1181244603e+03 -1.2776427595e-06
1.1287186280e+03 -1.1830726481e-06
1.1393127957e+03 -1.0914747095e-06
1.1499069634e+03 -1.0128881628e-06
1.1605011311e+03 -9.3871218757e-07
1.1710952989e+03 -8.8131594586e-07
1.1816894666e+03 -8.3025679549e-07
1.1922836343e+03 -7.8827483752e-07
1.2028778020e+03 -7.3720513809e-07
1.2134719697e+03 -6.7586383647e-07
1.2240661374e+03 -5.9206481322e-07
1.2346603051e+03 -4.9362722768e-07
1.2452544729e+03 -3.7977528823e-07
1.2558486406e+03 -2.6542534893e-07
1.2664428083e+03 -1.6014544120e-07
1.2770369760e+03 -8.2769335735e-08
1.2876311437e+03 -4.4048273521e-08
1.2982253114e+03 -4.2408408497e-08
1.3088194791e+03 -6.9433320577e-08
1.3194136469e+03 -1.0107402581e-07
1.3300078146e+03 -1.3265107363e-07
1.3406019823e+03 -1.4610062844e-07
1.3511961500e+03 -1.5709620906e-07
1.3617903177e+03 -1.6056541304e-07
1.3723844854e+03 -1.8619760624e-07
1.3829786531e+03 -2.3038426391e-07
1.3935728209e+03 -3.1366291070e-07
1.4041669886e+03 -4.1723072396e-07
1.4147611563e+03 -5.4938793970e-07
1.4253553240e+03 -6.8977644909e-07
1.4359494917e+03 -8.5258998762e-07
1.4465436594e+03 -1.0225397250e-06
1.4571378272e+03 -1.2124272028e-06
1.4677319949e+03 -1.3974716181e-06
1.4783261626e+03 -1.5833809812e-06
1.4889203303e+03 -1.7411826733e-06
1.4995144980e+03 -1.8806312367e-06
1.5101086657e+03 -1.9758409695e-06
1.5207028334e+03 -2.0430280949e-06
1.5312970012e+03 -2.0606098753e-06
1.5418911689e+03 -2.0541812722e-06
1.5524853366e+03 -2.0129292732e-06
1.5630795043e+03 -1.9731730786e-06
1.5736736720e+03 -1.9248747560e-06
1.5842678397e+03 -1.8936743079e-06
1.5948620074e+03 -1.8511595509e-06
1.6054561752e+03 -1.8090110940e-06
1.6160503429e+03 -1.7345650847e-06
1.6266445106e+03 -1.6485190621e-06
1.6372386783e+03 -1.5317916032e-06
1.6478328460e+03 -1.4196784612e-06
1.6584270137e+03 -1.2960331829e-06
1.6690211814e+03 -1.1945174394e-06
1.6796153492e+03 -1.0883673913e-06
1.6902095169e+03 -1.0052175746e-06
1.7008036846e+03 -9.1051752006e-07
1.7113978523e+03 -8.3044324696e-07
1.7219920200e+03 -7.3449229224e-07
1.7325861877e+03 -6.5367133778e-07
1.7431803555e+03 -5.6505202555e-07
1.7537745232e+03 -4.9524645503e-07
1.7643686909e+03 -4.2632534202e-07
1.7749628586e+03 -3.7917016914e-07
1.7855570263e+03 -3.4637663568e-07
1.7961511940e+03 -3.3804273320e-07
1.8067453617e+03 -3.5225748844e-07
1.8173395295e+03 -3.8014328069e-07
1.8279336972e+03 -4.2492657898e-07
1.8385278649e+03 -4.6080037287e-07
1.8491220326e+03 -4.9967299319e-07
1.8597162003e+03 -5.0477534095e-07
1.8703103680e+03 -4.9794827762e-07
1.8809045357e+03 -4.3810852268e-07
1.8914987035e+03 -3.6087447614e-07
1.9020928712e+03 -2.3241268738e-07
1.9126870389e+03 -1.0257455379e-07
1.9232812066e+03 5.6442626402e-08
1.9338753743e+03 1.9345868130e-07
1.9444695420e+03 3.3699299072e-07
1.9550637097e+03 4.4202497420e-07
1.9656578775e+03 5.4169741895e-07
1.9762520452e+03 6.0145438421e-07
1.9868462129e+03 6.5958724377e-07
1.9974403806e+03 6.8834504492e-07
2.0080345483e+03 7.2429608234e-07
2.0186287160e+03 7.4433886860e-07
2.0292228837e+03 7.8065905412e-07
2.0398170515e+03 8.1171999217e-07
2.0504112192e+03 8.5424921170e-07
2.0610053869e+03 8.7808623554e-07
2.0715995546e+03 8.8384601819e-07
2.0821937223e+03 8.4677530476e-07
2.0927878900e+03 7.7461983943e-07
2.1033820578e+03 6.6334019317e-07
2.1139762255e+03 5.2700364534e-07
2.1245703932e+03 3.6657851861e-07
2.1351645609e+03 1.9038341166e-07
2.1457587286e+03 2.7631831006e-09
2.1563528963e+03 -1.8536048463e-07
2.1669470640e+03 -3.6397689278e-07
2.1775412318e+03 -5.2817311926e-07
2.1881353995e+03 -6.7480820845e-07
2.1987295672e+03 -8.1189064551e-07
2.2093237349e+03 -9.3869768013e-07
2.2199179026e+03 -1.0651262642e-06
2.2305120703e+03 -1.1867550112e-06
2.2411062380e+03 -1.3104176945e-06
2.2517004058e+03 -1.4300495219e-06
2.2622945735e+03 -1.5457589054e-06
2.2728887412e+03 -1.6490563362e-06
2.2834829089e+03 -1.7342782045e-06
2.2940770766e+03 -1.7963645141e-06
2.3046712443e+03 -1.8344233639e-06
2.3152654120e+03 -1.8499702297e-06
2.3258595798e+03 -1.8477605902e-06
2.3364537475e+03 -1.8237820833e-06
2.3470479152e+03 -1.7851587378e-06
2.3576420829e+03 -1.7219067903e-06
2.3682362506e+03 -1.6578656833e-06
2.3788304183e+03 -1.5820581635e-06
2.3894245861e+03 -1.5325750108e-06
2.4000187538e+03 -1.4769383334e-06
2.4106129215e+03 -1.4514860455e-06
2.4212070892e+03 -1.3926309371e-06
2.4318012569e+03 -1.3423695709e-06
2.4423954246e+03 -1.2203153011e-06
2.4529895923e+03 -1.0911849509e-06
2.4635837601e+03 -8.7771655025e-07
2.4741779278e+03 -6.8137954768e-07
2.4847720955e+03 -4.3780856106e-07
2.4953662632e+03 -2.7073812682e-07
2.5059604309e+03 -1.0256822305e-07
2.5165545986e+03 -4.3444892544e-08
2.5271487663e+03 1.7022985740e-08
2.5377429341e+03 -1.5814342490e-08
2.5483371018e+03 -1.3942402142e-08
2.5589312695e+03 -7.7668540071e-08
2.5695254372e+03 -7.9879591228e-08
2.5801196049e+03 -1.3560589040e-07
2.5907137726e+03 -1.1481729061e-07
2.6013079403e+03 -1.3353613349e-07
2.6119021081e+03 -4.6773842012e-08
2.6224962758e+03 3.2441140397e-08
2.6330904435e+03 2.4570790867e-07
2.6436846112e+03 4.6209098590e-07
2.6542787789e+03 7.9583783411e-07
2.6648729466e+03 1.1012766921e-06
2.6754671143e+03 1.4734415254e-06
2.6860612821e+03 1.7776421285e-06
2.6966554498e+03 2.0921745254e-06
2.7072496175e+03 2.3124667260e-06
2.7178437852e+03 2.4938132868e-06
2.7284379529e+03 2.5833515685e-06
