# Reynolds stress Morkovin's scaling 
# Columns: y_plus    rho v''v''/tau_wall
3.8646263475e-01 7.0466480328e-06
1.1533752036e+00 2.2507943730e-04
1.9209634831e+00 1.2996314599e-03
2.6894093988e+00 3.9740162101e-03
3.4589138713e+00 8.8714691888e-03
4.2296938542e+00 1.6314443678e-02
5.0019793562e+00 2.6532648962e-02
5.7760106829e+00 3.9485676714e-02
6.5520360469e+00 5.5183662232e-02
7.3303096133e+00 7.3404000762e-02
8.1110899864e+00 9.4062877665e-02
8.8946390963e+00 1.1685510594e-01
9.6812214258e+00 1.4165880770e-01
1.0471103504e+01 1.6813644899e-01
1.1264553601e+01 1.9615585688e-01
1.2061841567e+01 2.2538036112e-01
1.2863238767e+01 2.5568840212e-01
1.3669018081e+01 2.8676645869e-01
1.4479453944e+01 3.1851299990e-01
1.5294822408e+01 3.5064614661e-01
1.6115401223e+01 3.8308682829e-01
1.6941469919e+01 4.1558727395e-01
1.7773309905e+01 4.4808695229e-01
1.8611204551e+01 4.8036499861e-01
1.9455439297e+01 5.1237346850e-01
2.0306301738e+01 5.4392192431e-01
2.1164081729e+01 5.7498839310e-01
2.2029071483e+01 6.0542758381e-01
2.2901565666e+01 6.3524993802e-01
2.3781861504e+01 6.6434724801e-01
2.4670258877e+01 6.9274480592e-01
2.5567060427e+01 7.2035156820e-01
2.6472571660e+01 7.4719463607e-01
2.7387101046e+01 7.7319573848e-01
2.8310960130e+01 7.9838835487e-01
2.9244463634e+01 8.2271361297e-01
3.0187929564e+01 8.4621555265e-01
3.1141679324e+01 8.6885241182e-01
3.2106037817e+01 8.9067362163e-01
3.3081333562e+01 9.1164961111e-01
3.4067898803e+01 9.3183414138e-01
3.5066069625e+01 9.5120897844e-01
3.6076186064e+01 9.6982980017e-01
3.7098592226e+01 9.8768191738e-01
3.8133636406e+01 1.0048088172e+00
3.9181671201e+01 1.0211830156e+00
4.0243053635e+01 1.0368314602e+00
4.1318145279e+01 1.0517270720e+00
4.2407312375e+01 1.0659032111e+00
4.3510925957e+01 1.0793483963e+00
4.4629361984e+01 1.0921040281e+00
4.5763001462e+01 1.1041670160e+00
4.6912230577e+01 1.1155775099e+00
4.8077440826e+01 1.1263312044e+00
4.9259029150e+01 1.1364623873e+00
5.0457398069e+01 1.1459676293e+00
5.1672955819e+01 1.1548820771e+00
5.2906116493e+01 1.1632081171e+00
5.4157300179e+01 1.1709813075e+00
5.5426933107e+01 1.1782015919e+00
5.6715447790e+01 1.1848907981e+00
5.8023283173e+01 1.1910344330e+00
5.9350884784e+01 1.1966471811e+00
6.0698704885e+01 1.2017252040e+00
6.2067202624e+01 1.2062950919e+00
6.3456844193e+01 1.2103610427e+00
6.4868102990e+01 1.2139565709e+00
6.6301459772e+01 1.2171054194e+00
6.7757402829e+01 1.2198619827e+00
6.9236428142e+01 1.2222620651e+00
7.0739039556e+01 1.2243548970e+00
7.2265748952e+01 1.2261547252e+00
7.3817076418e+01 1.2276734886e+00
7.5393550430e+01 1.2288911750e+00
7.6995708031e+01 1.2297993255e+00
7.8624095011e+01 1.2303817934e+00
8.0279266098e+01 1.2306667093e+00
8.1961785143e+01 1.2306986466e+00
8.3672225313e+01 1.2305298085e+00
8.5411169286e+01 1.2301571652e+00
8.7179209453e+01 1.2295458860e+00
8.8976948115e+01 1.2286386303e+00
9.0804997688e+01 1.2274181464e+00
9.2663980918e+01 1.2259012754e+00
9.4554531086e+01 1.2241459305e+00
9.6477292228e+01 1.2221852261e+00
9.8432919351e+01 1.2200367747e+00
1.0042207866e+02 1.2176921050e+00
1.0244544778e+02 1.2151551098e+00
1.0450371600e+02 1.2124246685e+00
1.0659758449e+02 1.2095184832e+00
1.0872776654e+02 1.2064435973e+00
1.1089498782e+02 1.2031937121e+00
1.1309998661e+02 1.1997188966e+00
1.1534351409e+02 1.1959893781e+00
1.1762633451e+02 1.1920136957e+00
1.1994922556e+02 1.1878327725e+00
1.2231297854e+02 1.1834850296e+00
1.2471839870e+02 1.1789925140e+00
1.2716630546e+02 1.1743251730e+00
1.2965753273e+02 1.1694427267e+00
1.3219292918e+02 1.1643035111e+00
1.3477335850e+02 1.1588821132e+00
1.3739969976e+02 1.1531261683e+00
1.4007284764e+02 1.1470171737e+00
1.4279371277e+02 1.1406064581e+00
1.4556322205e+02 1.1339631700e+00
1.4838231894e+02 1.1271291637e+00
1.5125196379e+02 1.1201525682e+00
1.5417313418e+02 1.1130397562e+00
1.5714682523e+02 1.1058010392e+00
1.6017404996e+02 1.0984003961e+00
1.6325583964e+02 1.0907516411e+00
1.6639324409e+02 1.0827834101e+00
1.6958733211e+02 1.0745268993e+00
1.7283919180e+02 1.0660381797e+00
1.7614993094e+02 1.0574037801e+00
1.7952067737e+02 1.0486642843e+00
1.8295257936e+02 1.0397764664e+00
1.8644680602e+02 1.0306472102e+00
1.9000454771e+02 1.0211368700e+00
1.9362701641e+02 1.0112523827e+00
1.9731544613e+02 1.0011524824e+00
2.0107109340e+02 9.9079664842e-01
2.0489523759e+02 9.8008889096e-01
2.0878918146e+02 9.6887282072e-01
2.1275425151e+02 9.5706971793e-01
2.1679179849e+02 9.4457858792e-01
2.2090319782e+02 9.3136932130e-01
2.2508985010e+02 9.1775629682e-01
2.2935318154e+02 9.0389394864e-01
2.3369464451e+02 8.8979144364e-01
2.3811571797e+02 8.7537216998e-01
2.4261790799e+02 8.6062544455e-01
2.4720274829e+02 8.4559455325e-01
2.5187180076e+02 8.3027321436e-01
2.5662665594e+02 8.1457418935e-01
2.6146893364e+02 7.9854330776e-01
2.6640028341e+02 7.8213432833e-01
2.7142238519e+02 7.6509712782e-01
2.7653694978e+02 7.4741288570e-01
2.8174571954e+02 7.2916293274e-01
2.8705046887e+02 7.1052884473e-01
2.9245300490e+02 6.9184739857e-01
2.9795516805e+02 6.7313195562e-01
3.0355883269e+02 6.5382508550e-01
3.0926590777e+02 6.3391874753e-01
3.1507833746e+02 6.1332806331e-01
3.2099810182e+02 5.9213130069e-01
3.2702721749e+02 5.7078340055e-01
3.3316773833e+02 5.4936722587e-01
3.3942175615e+02 5.2771424341e-01
3.4579140141e+02 5.0554328851e-01
3.5227884389e+02 4.8310884906e-01
3.5888629334e+02 4.6046904327e-01
3.6561600013e+02 4.3766570681e-01
3.7247025564e+02 4.1502703717e-01
3.7945139238e+02 3.9249691211e-01
3.8656178361e+02 3.7026262725e-01
3.9380384183e+02 3.4798937458e-01
4.0118001554e+02 3.2554207707e-01
4.0869278313e+02 3.0312054283e-01
4.1634464207e+02 2.8094914472e-01
4.2413809122e+02 2.5903001676e-01
4.3207560294e+02 2.3738135004e-01
4.4015958123e+02 2.1610027289e-01
4.4839230158e+02 1.9564235613e-01
4.5677582794e+02 1.7577068333e-01
4.6531190345e+02 1.5672175570e-01
4.7400181292e+02 1.3889365321e-01
4.8284621863e+02 1.2232451712e-01
4.9184497480e+02 1.0727836203e-01
5.0099693186e+02 9.3574983892e-02
5.1029974625e+02 8.1085352727e-02
5.1974971627e+02 6.9827351099e-02
5.2934166651e+02 5.9719872647e-02
5.3906890265e+02 5.0816871977e-02
5.4892325388e+02 4.3055389936e-02
5.5889521190e+02 3.6462936163e-02
5.6897416497e+02 3.0966410708e-02
5.7914871332e+02 2.6308499145e-02
5.8940704153e+02 2.2303773030e-02
5.9973731589e+02 1.8908662863e-02
6.1012807113e+02 1.6096694076e-02
6.2056855339e+02 1.3746690031e-02
6.3104899243e+02 1.1800349642e-02
6.4156078668e+02 1.0200638159e-02
6.5209659581e+02 8.8768234628e-03
6.6265034658e+02 7.7830783931e-03
6.7321716636e+02 6.8756918315e-03
6.8379326367e+02 6.1154155493e-03
6.9437577694e+02 5.4691042868e-03
7.0496261119e+02 4.9097282584e-03
7.1555227852e+02 4.4220586222e-03
7.2614375372e+02 4.0017785143e-03
7.3673635149e+02 3.6365714956e-03
7.4732962734e+02 3.3151375042e-03
7.5792330156e+02 3.0309720006e-03
7.6851720338e+02 2.7790854775e-03
7.7911123163e+02 2.5548051895e-03
7.8970532814e+02 2.3543529211e-03
8.0029946048e+02 2.1745224240e-03
8.1089361110e+02 2.0127474608e-03
8.2148777078e+02 1.8667150317e-03
8.3208193482e+02 1.7345574498e-03
8.4267610090e+02 1.6145846814e-03
8.5327026791e+02 1.5054724061e-03
8.6386443532e+02 1.4059945957e-03
8.7445860292e+02 1.3152063998e-03
8.8505277058e+02 1.2321580362e-03
8.9564693828e+02 1.1561291697e-03
9.0624110599e+02 1.0863280490e-03
9.1683527370e+02 1.0222045769e-03
9.2742944141e+02 9.6313136550e-04
9.3802360913e+02 9.0870917790e-04
9.4861777684e+02 8.5843179223e-04
9.5921194456e+02 8.1198906843e-04
9.6980611227e+02 7.6896525991e-04
9.8040027999e+02 7.2913221572e-04
9.9099444770e+02 6.9215607267e-04
1.0015886154e+03 6.5786753206e-04
1.0121827831e+03 6.2598173734e-04
1.0227769508e+03 5.9636022287e-04
1.0333711186e+03 5.6874578596e-04
1.0439652863e+03 5.4302140483e-04
1.0545594540e+03 5.1895778074e-04
1.0651536217e+03 4.9647528149e-04
1.0757477894e+03 4.7539242341e-04
1.0863419571e+03 4.5567713084e-04
1.0969361249e+03 4.3718417795e-04
1.1075302926e+03 4.1990740507e-04
1.1181244603e+03 4.0370881127e-04
1.1287186280e+03 3.8858662343e-04
1.1393127957e+03 3.7439125112e-04
1.1499069634e+03 3.6111479496e-04
1.1605011311e+03 3.4859531764e-04
1.1710952989e+03 3.3682307080e-04
1.1816894666e+03 3.2564107507e-04
1.1922836343e+03 3.1505141915e-04
1.2028778020e+03 3.0491246989e-04
1.2134719697e+03 2.9523831339e-04
1.2240661374e+03 2.8591479176e-04
1.2346603051e+03 2.7699399413e-04
1.2452544729e+03 2.6842153152e-04
1.2558486406e+03 2.6028743057e-04
1.2664428083e+03 2.5255357727e-04
1.2770369760e+03 2.4527523740e-04
1.2876311437e+03 2.3837763791e-04
1.2982253114e+03 2.3188150738e-04
1.3088194791e+03 2.2571180921e-04
1.3194136469e+03 2.1988542963e-04
1.3300078146e+03 2.1432903871e-04
1.3406019823e+03 2.0905170750e-04
1.3511961500e+03 2.0399588736e-04
1.3617903177e+03 1.9918870916e-04
1.3723844854e+03 1.9459986452e-04
1.3829786531e+03 1.9026040324e-04
1.3935728209e+03 1.8613232123e-04
1.4041669886e+03 1.8222552082e-04
1.4147611563e+03 1.7848703575e-04
1.4253553240e+03 1.7493145026e-04
1.4359494917e+03 1.7151773737e-04
1.4465436594e+03 1.6827999831e-04
1.4571378272e+03 1.6517604412e-04
1.4677319949e+03 1.6224224132e-04
1.4783261626e+03 1.5943158952e-04
1.4889203303e+03 1.5678764107e-04
1.4995144980e+03 1.5425587415e-04
1.5101086657e+03 1.5186751580e-04
1.5207028334e+03 1.4954236834e-04
1.5312970012e+03 1.4730100102e-04
1.5418911689e+03 1.4506694063e-04
1.5524853366e+03 1.4288770291e-04
1.5630795043e+03 1.4071660331e-04
1.5736736720e+03 1.3862600654e-04
1.5842678397e+03 1.3657978767e-04
1.5948620074e+03 1.3464734137e-04
1.6054561752e+03 1.3277957762e-04
1.6160503429e+03 1.3103136482e-04
1.6266445106e+03 1.2934285569e-04
1.6372386783e+03 1.2777326640e-04
1.6478328460e+03 1.2627117277e-04
1.6584270137e+03 1.2490684505e-04
1.6690211814e+03 1.2362128813e-04
1.6796153492e+03 1.2246985150e-04
1.6902095169e+03 1.2137047905e-04
1.7008036846e+03 1.2036488872e-04
1.7113978523e+03 1.1936992315e-04
1.7219920200e+03 1.1843909302e-04
1.7325861877e+03 1.1751240281e-04
1.7431803555e+03 1.1665396957e-04
1.7537745232e+03 1.1580869088e-04
1.7643686909e+03 1.1502985810e-04
1.7749628586e+03 1.1426079186e-04
1.7855570263e+03 1.1355173826e-04
1.7961511940e+03 1.1285887010e-04
1.8067453617e+03 1.1223924538e-04
1.8173395295e+03 1.1166099694e-04
1.8279336972e+03 1.1116850069e-04
1.8385278649e+03 1.1071980236e-04
1.8491220326e+03 1.1033847148e-04
1.8597162003e+03 1.0998827132e-04
1.8703103680e+03 1.0969364324e-04
1.8809045357e+03 1.0942966531e-04
1.8914987035e+03 1.0921042993e-04
1.9020928712e+03 1.0900687062e-04
1.9126870389e+03 1.0882517745e-04
1.9232812066e+03 1.0864315943e-04
1.9338753743e+03 1.0847981769e-04
1.9444695420e+03 1.0832222806e-04
1.9550637097e+03 1.0819566325e-04
1.9656578775e+03 1.0807889602e-04
1.9762520452e+03 1.0799981028e-04
1.9868462129e+03 1.0792950089e-04
1.9974403806e+03 1.0790962792e-04
2.0080345483e+03 1.0790572065e-04
2.0186287160e+03 1.0797106914e-04
2.0292228837e+03 1.0805375273e-04
2.0398170515e+03 1.0821153866e-04
2.0504112192e+03 1.0836382869e-04
2.0610053869e+03 1.0857528661e-04
2.0715995546e+03 1.0874373235e-04
2.0821937223e+03 1.0896652723e-04
2.0927878900e+03 1.0913766390e-04
2.1033820578e+03 1.0938725033e-04
2.1139762255e+03 1.0958340982e-04
2.1245703932e+03 1.0986389708e-04
2.1351645609e+03 1.1005981127e-04
2.1457587286e+03 1.1032965177e-04
2.1563528963e+03 1.1048658508e-04
2.1669470640e+03 1.1072834140e-04
2.1775412318e+03 1.1085085976e-04
2.1881353995e+03 1.1108138087e-04
2.1987295672e+03 1.1118208620e-04
2.2093237349e+03 1.1139827775e-04
2.2199179026e+03 1.1145245164e-04
2.2305120703e+03 1.1161254057e-04
2.2411062380e+03 1.1156983462e-04
2.2517004058e+03 1.1162658855e-04
2.2622945735e+03 1.1145398351e-04
2.2728887412e+03 1.1138368173e-04
2.2834829089e+03 1.1106793916e-04
2.2940770766e+03 1.1085653998e-04
2.3046712443e+03 1.1039387654e-04
2.3152654120e+03 1.1004228531e-04
2.3258595798e+03 1.0943844761e-04
2.3364537475e+03 1.0894647429e-04
2.3470479152e+03 1.0820516358e-04
2.3576420829e+03 1.0759619871e-04
2.3682362506e+03 1.0677259185e-04
2.3788304183e+03 1.0613647682e-04
2.3894245861e+03 1.0533535811e-04
2.4000187538e+03 1.0479317253e-04
2.4106129215e+03 1.0412563516e-04
2.4212070892e+03 1.0379284282e-04
2.4318012569e+03 1.0335216416e-04
2.4423954246e+03 1.0331666878e-04
2.4529895923e+03 1.0313849855e-04
2.4635837601e+03 1.0339056110e-04
2.4741779278e+03 1.0338362301e-04
2.4847720955e+03 1.0380022043e-04
2.4953662632e+03 1.0381365645e-04
2.5059604309e+03 1.0426697301e-04
2.5165545986e+03 1.0416773185e-04
2.5271487663e+03 1.0453071860e-04
2.5377429341e+03 1.0415586744e-04
2.5483371018e+03 1.0425754842e-04
2.5589312695e+03 1.0339188726e-04
2.5695254372e+03 1.0301793625e-04
2.5801196049e+03 1.0140221541e-04
2.5907137726e+03 1.0032069292e-04
2.6013079403e+03 9.7693618167e-05
2.6119021081e+03 9.5690649950e-05
2.6224962758e+03 9.1795438186e-05
2.6330904435e+03 8.8649311757e-05
2.6436846112e+03 8.3240645841e-05
2.6542787789e+03 7.8779075042e-05
2.6648729466e+03 7.1859662786e-05
2.6754671143e+03 6.6309947371e-05
2.6860612821e+03 5.8772402691e-05
2.6966554498e+03 5.3409110912e-05
2.7072496175e+03 4.7638187106e-05
2.7178437852e+03 4.4914226236e-05
2.7284379529e+03 4.3861640736e-05
