# Reynolds stress Morkovin's scaling 
# Columns: y_plus    rho u''u''/tau_wall
3.8646263475e-01 2.4857482885e-02
1.1533752036e+00 2.1991250185e-01
1.9209634831e+00 6.0218919899e-01
2.6894093988e+00 1.1544888274e+00
3.4589138713e+00 1.8420580994e+00
4.2296938542e+00 2.6152175322e+00
5.0019793562e+00 3.4190473183e+00
5.7760106829e+00 4.2034509204e+00
6.5520360469e+00 4.9299454221e+00
7.3303096133e+00 5.5737504103e+00
8.1110899864e+00 6.1228021098e+00
8.8946390963e+00 6.5747707099e+00
9.6812214258e+00 6.9339234500e+00
1.0471103504e+01 7.2082285693e+00
1.1264553601e+01 7.4074049472e+00
1.2061841567e+01 7.5415799732e+00
1.2863238767e+01 7.6205443056e+00
1.3669018081e+01 7.6532510958e+00
1.4479453944e+01 7.6475888343e+00
1.5294822408e+01 7.6103653767e+00
1.6115401223e+01 7.5474418854e+00
1.6941469919e+01 7.4639389089e+00
1.7773309905e+01 7.3643543081e+00
1.8611204551e+01 7.2526331084e+00
1.9455439297e+01 7.1321435193e+00
2.0306301738e+01 7.0057169157e+00
2.1164081729e+01 6.8756631324e+00
2.2029071483e+01 6.7438380517e+00
2.2901565666e+01 6.6116626805e+00
2.3781861504e+01 6.4802066640e+00
2.4670258877e+01 6.3502534767e+00
2.5567060427e+01 6.2223806713e+00
2.6472571660e+01 6.0969836923e+00
2.7387101046e+01 5.9743215456e+00
2.8310960130e+01 5.8545609867e+00
2.9244463634e+01 5.7378383688e+00
3.0187929564e+01 5.6243025331e+00
3.1141679324e+01 5.5141162845e+00
3.2106037817e+01 5.4074304442e+00
3.3081333562e+01 5.3043599161e+00
3.4067898803e+01 5.2049761738e+00
3.5066069625e+01 5.1092766441e+00
3.6076186064e+01 5.0171963648e+00
3.7098592226e+01 4.9286228865e+00
3.8133636406e+01 4.8434321752e+00
3.9181671201e+01 4.7614671646e+00
4.0243053635e+01 4.6825613913e+00
4.1318145279e+01 4.6065677891e+00
4.2407312375e+01 4.5333915555e+00
4.3510925957e+01 4.4629299611e+00
4.4629361984e+01 4.3950833310e+00
4.5763001462e+01 4.3297918474e+00
4.6912230577e+01 4.2670906301e+00
4.8077440826e+01 4.2070320269e+00
4.9259029150e+01 4.1495753147e+00
5.0457398069e+01 4.0944911483e+00
5.1672955819e+01 4.0414872394e+00
5.2906116493e+01 3.9903768382e+00
5.4157300179e+01 3.9411566101e+00
5.5426933107e+01 3.8939019026e+00
5.6715447790e+01 3.8486615499e+00
5.8023283173e+01 3.8053869403e+00
5.9350884784e+01 3.7640086202e+00
6.0698704885e+01 3.7244460573e+00
6.2067202624e+01 3.6865923918e+00
6.3456844193e+01 3.6502788178e+00
6.4868102990e+01 3.6153243733e+00
6.6301459772e+01 3.5815981936e+00
6.7757402829e+01 3.5490826013e+00
6.9236428142e+01 3.5178197787e+00
7.0739039556e+01 3.4878544937e+00
7.2265748952e+01 3.4590849692e+00
7.3817076418e+01 3.4312562076e+00
7.5393550430e+01 3.4041818908e+00
7.6995708031e+01 3.3779233636e+00
7.8624095011e+01 3.3525999844e+00
8.0279266098e+01 3.3281846128e+00
8.1961785143e+01 3.3044885527e+00
8.3672225313e+01 3.2812793168e+00
8.5411169286e+01 3.2583442142e+00
8.7179209453e+01 3.2355244781e+00
8.8976948115e+01 3.2127373814e+00
9.0804997688e+01 3.1900603279e+00
9.2663980918e+01 3.1676340217e+00
9.4554531086e+01 3.1454563491e+00
9.6477292228e+01 3.1233807291e+00
9.8432919351e+01 3.1013795738e+00
1.0042207866e+02 3.0795388071e+00
1.0244544778e+02 3.0579504049e+00
1.0450371600e+02 3.0366450117e+00
1.0659758449e+02 3.0156327345e+00
1.0872776654e+02 2.9949678156e+00
1.1089498782e+02 2.9747312993e+00
1.1309998661e+02 2.9550621066e+00
1.1534351409e+02 2.9358039471e+00
1.1762633451e+02 2.9163073115e+00
1.1994922556e+02 2.8962003033e+00
1.2231297854e+02 2.8755990701e+00
1.2471839870e+02 2.8547525282e+00
1.2716630546e+02 2.8338488770e+00
1.2965753273e+02 2.8127661559e+00
1.3219292918e+02 2.7912646852e+00
1.3477335850e+02 2.7693709060e+00
1.3739969976e+02 2.7471922871e+00
1.4007284764e+02 2.7246595565e+00
1.4279371277e+02 2.7017758210e+00
1.4556322205e+02 2.6787458437e+00
1.4838231894e+02 2.6555253742e+00
1.5125196379e+02 2.6317962483e+00
1.5417313418e+02 2.6073231713e+00
1.5714682523e+02 2.5824051772e+00
1.6017404996e+02 2.5575051300e+00
1.6325583964e+02 2.5326441865e+00
1.6639324409e+02 2.5077085231e+00
1.6958733211e+02 2.4827877099e+00
1.7283919180e+02 2.4578045672e+00
1.7614993094e+02 2.4323742620e+00
1.7952067737e+02 2.4062573774e+00
1.8295257936e+02 2.3794964043e+00
1.8644680602e+02 2.3523053876e+00
1.9000454771e+02 2.3250241788e+00
1.9362701641e+02 2.2975311834e+00
1.9731544613e+02 2.2692429223e+00
2.0107109340e+02 2.2394853684e+00
2.0489523759e+02 2.2081203958e+00
2.0878918146e+02 2.1759525419e+00
2.1275425151e+02 2.1431595799e+00
2.1679179849e+02 2.1094825405e+00
2.2090319782e+02 2.0749235387e+00
2.2508985010e+02 2.0398397017e+00
2.2935318154e+02 2.0045273240e+00
2.3369464451e+02 1.9690913113e+00
2.3811571797e+02 1.9333564616e+00
2.4261790799e+02 1.8968705744e+00
2.4720274829e+02 1.8601497356e+00
2.5187180076e+02 1.8232227848e+00
2.5662665594e+02 1.7858284047e+00
2.6146893364e+02 1.7483691937e+00
2.6640028341e+02 1.7106597543e+00
2.7142238519e+02 1.6716031058e+00
2.7653694978e+02 1.6311685872e+00
2.8174571954e+02 1.5896272625e+00
2.8705046887e+02 1.5462794589e+00
2.9245300490e+02 1.5008143773e+00
2.9795516805e+02 1.4540575064e+00
3.0355883269e+02 1.4068009253e+00
3.0926590777e+02 1.3587054739e+00
3.1507833746e+02 1.3104033251e+00
3.2099810182e+02 1.2609703052e+00
3.2702721749e+02 1.2098741912e+00
3.3316773833e+02 1.1579670811e+00
3.3942175615e+02 1.1046655085e+00
3.4579140141e+02 1.0493368659e+00
3.5227884389e+02 9.9249145933e-01
3.5888629334e+02 9.3423523290e-01
3.6561600013e+02 8.7477083724e-01
3.7247025564e+02 8.1482509171e-01
3.7945139238e+02 7.5445660744e-01
3.8656178361e+02 6.9357004787e-01
3.9380384183e+02 6.3264025243e-01
4.0118001554e+02 5.7170791306e-01
4.0869278313e+02 5.1184542966e-01
4.1634464207e+02 4.5408447514e-01
4.2413809122e+02 3.9857465469e-01
4.3207560294e+02 3.4701616538e-01
4.4015958123e+02 2.9991985960e-01
4.4839230158e+02 2.5576264662e-01
4.5677582794e+02 2.1565706763e-01
4.6531190345e+02 1.8020440817e-01
4.7400181292e+02 1.4966423345e-01
4.8284621863e+02 1.2336825924e-01
4.9184497480e+02 1.0094483059e-01
5.0099693186e+02 8.2095167399e-02
5.1029974625e+02 6.6440342252e-02
5.1974971627e+02 5.3720636181e-02
5.2934166651e+02 4.3905892483e-02
5.3906890265e+02 3.6084708600e-02
5.4892325388e+02 2.9725305113e-02
5.5889521190e+02 2.4525394330e-02
5.6897416497e+02 2.0441492996e-02
5.7914871332e+02 1.7257158146e-02
5.8940704153e+02 1.4762184812e-02
5.9973731589e+02 1.2792925706e-02
6.1012807113e+02 1.1075925097e-02
6.2056855339e+02 9.6089819914e-03
6.3104899243e+02 8.4072187569e-03
6.4156078668e+02 7.4047676025e-03
6.5209659581e+02 6.5624655877e-03
6.6265034658e+02 5.8619279458e-03
6.7321716636e+02 5.2595291670e-03
6.8379326367e+02 4.7339382000e-03
6.9437577694e+02 4.2812766973e-03
7.0496261119e+02 3.8871832121e-03
7.1555227852e+02 3.5430182322e-03
7.2614375372e+02 3.2450068829e-03
7.3673635149e+02 2.9780333515e-03
7.4732962734e+02 2.7384563358e-03
7.5792330156e+02 2.5295128194e-03
7.6851720338e+02 2.3430709415e-03
7.7911123163e+02 2.1757375577e-03
7.8970532814e+02 2.0252091320e-03
8.0029946048e+02 1.8894048388e-03
8.1089361110e+02 1.7665149661e-03
8.2148777078e+02 1.6550305154e-03
8.3208193482e+02 1.5535900120e-03
8.4267610090e+02 1.4610462591e-03
8.5327026791e+02 1.3764000161e-03
8.6386443532e+02 1.2987995589e-03
8.7445860292e+02 1.2275290367e-03
8.8505277058e+02 1.1619279607e-03
8.9564693828e+02 1.1014797100e-03
9.0624110599e+02 1.0456691446e-03
9.1683527370e+02 9.9412085091e-04
9.2742944141e+02 9.4643209923e-04
9.3802360913e+02 9.0233886560e-04
9.4861777684e+02 8.6150852839e-04
9.5921194456e+02 8.2372530007e-04
9.6980611227e+02 7.8867043018e-04
9.8040027999e+02 7.5613798074e-04
9.9099444770e+02 7.2582836399e-04
1.0015886154e+03 6.9756679337e-04
1.0121827831e+03 6.7111067104e-04
1.0227769508e+03 6.4634576170e-04
1.0333711186e+03 6.2308935454e-04
1.0439652863e+03 6.0127019967e-04
1.0545594540e+03 5.8074010761e-04
1.0651536217e+03 5.6145101857e-04
1.0757477894e+03 5.4328007158e-04
1.0863419571e+03 5.2620310266e-04
1.0969361249e+03 5.1012793912e-04
1.1075302926e+03 4.9505455961e-04
1.1181244603e+03 4.8090449434e-04
1.1287186280e+03 4.6767534368e-04
1.1393127957e+03 4.5527525329e-04
1.1499069634e+03 4.4368990220e-04
1.1605011311e+03 4.3281960263e-04
1.1710952989e+03 4.2265391307e-04
1.1816894666e+03 4.1310329296e-04
1.1922836343e+03 4.0417126684e-04
1.2028778020e+03 3.9578217095e-04
1.2134719697e+03 3.8794341841e-04
1.2240661374e+03 3.8057614836e-04
1.2346603051e+03 3.7367111118e-04
1.2452544729e+03 3.6713721379e-04
1.2558486406e+03 3.6095740640e-04
1.2664428083e+03 3.5505463261e-04
1.2770369760e+03 3.4943129829e-04
1.2876311437e+03 3.4404062536e-04
1.2982253114e+03 3.3890246416e-04
1.3088194791e+03 3.3399134967e-04
1.3194136469e+03 3.2934117320e-04
1.3300078146e+03 3.2494984568e-04
1.3406019823e+03 3.2084921643e-04
1.3511961500e+03 3.1701489605e-04
1.3617903177e+03 3.1342526659e-04
1.3723844854e+03 3.1002541561e-04
1.3829786531e+03 3.0678573133e-04
1.3935728209e+03 3.0368192309e-04
1.4041669886e+03 3.0070785378e-04
1.4147611563e+03 2.9786530560e-04
1.4253553240e+03 2.9515054030e-04
1.4359494917e+03 2.9257510761e-04
1.4465436594e+03 2.9012992388e-04
1.4571378272e+03 2.8783374808e-04
1.4677319949e+03 2.8567277179e-04
1.4783261626e+03 2.8367311363e-04
1.4889203303e+03 2.8181396486e-04
1.4995144980e+03 2.8012238656e-04
1.5101086657e+03 2.7856152026e-04
1.5207028334e+03 2.7715664253e-04
1.5312970012e+03 2.7585813871e-04
1.5418911689e+03 2.7469721704e-04
1.5524853366e+03 2.7361582492e-04
1.5630795043e+03 2.7265171215e-04
1.5736736720e+03 2.7173765071e-04
1.5842678397e+03 2.7091849884e-04
1.5948620074e+03 2.7011990067e-04
1.6054561752e+03 2.6939727722e-04
1.6160503429e+03 2.6867210329e-04
1.6266445106e+03 2.6800705829e-04
1.6372386783e+03 2.6731433807e-04
1.6478328460e+03 2.6665492210e-04
1.6584270137e+03 2.6593591308e-04
1.6690211814e+03 2.6522158544e-04
1.6796153492e+03 2.6442989162e-04
1.6902095169e+03 2.6363302280e-04
1.7008036846e+03 2.6276954644e-04
1.7113978523e+03 2.6191602916e-04
1.7219920200e+03 2.6103388141e-04
1.7325861877e+03 2.6019539674e-04
1.7431803555e+03 2.5938129954e-04
1.7537745232e+03 2.5865173619e-04
1.7643686909e+03 2.5799992357e-04
1.7749628586e+03 2.5746780437e-04
1.7855570263e+03 2.5704323322e-04
1.7961511940e+03 2.5673780736e-04
1.8067453617e+03 2.5651059453e-04
1.8173395295e+03 2.5634524974e-04
1.8279336972e+03 2.5617916115e-04
1.8385278649e+03 2.5600086932e-04
1.8491220326e+03 2.5575771967e-04
1.8597162003e+03 2.5546953338e-04
1.8703103680e+03 2.5510958297e-04
1.8809045357e+03 2.5472254486e-04
1.8914987035e+03 2.5430590969e-04
1.9020928712e+03 2.5390899970e-04
1.9126870389e+03 2.5354906650e-04
1.9232812066e+03 2.5325364452e-04
1.9338753743e+03 2.5305345361e-04
1.9444695420e+03 2.5293020672e-04
1.9550637097e+03 2.5292672234e-04
1.9656578775e+03 2.5296538411e-04
1.9762520452e+03 2.5310962699e-04
1.9868462129e+03 2.5323240798e-04
1.9974403806e+03 2.5344305656e-04
2.0080345483e+03 2.5358624204e-04
2.0186287160e+03 2.5382959126e-04
2.0292228837e+03 2.5398391559e-04
2.0398170515e+03 2.5425971913e-04
2.0504112192e+03 2.5441364657e-04
2.0610053869e+03 2.5469361643e-04
2.0715995546e+03 2.5480241762e-04
2.0821937223e+03 2.5503811140e-04
2.0927878900e+03 2.5505342687e-04
2.1033820578e+03 2.5519665986e-04
2.1139762255e+03 2.5506809160e-04
2.1245703932e+03 2.5506684440e-04
2.1351645609e+03 2.5475767489e-04
2.1457587286e+03 2.5460305613e-04
2.1563528963e+03 2.5415829405e-04
2.1669470640e+03 2.5394324297e-04
2.1775412318e+03 2.5351135735e-04
2.1881353995e+03 2.5339742909e-04
2.1987295672e+03 2.5315550553e-04
2.2093237349e+03 2.5328631667e-04
2.2199179026e+03 2.5337917391e-04
2.2305120703e+03 2.5386246472e-04
2.2411062380e+03 2.5442113626e-04
2.2517004058e+03 2.5536406616e-04
2.2622945735e+03 2.5653091318e-04
2.2728887412e+03 2.5804491518e-04
2.2834829089e+03 2.5994515369e-04
2.2940770766e+03 2.6209494384e-04
2.3046712443e+03 2.6476739919e-04
2.3152654120e+03 2.6750927203e-04
2.3258595798e+03 2.7085764746e-04
2.3364537475e+03 2.7401177161e-04
2.3470479152e+03 2.7779233003e-04
2.3576420829e+03 2.8104762580e-04
2.3682362506e+03 2.8489208318e-04
2.3788304183e+03 2.8784725152e-04
2.3894245861e+03 2.9132663188e-04
2.4000187538e+03 2.9357472032e-04
2.4106129215e+03 2.9630056523e-04
2.4212070892e+03 2.9753339024e-04
2.4318012569e+03 2.9925962899e-04
2.4423954246e+03 2.9935908652e-04
2.4529895923e+03 3.0005703859e-04
2.4635837601e+03 2.9914306787e-04
2.4741779278e+03 2.9901784216e-04
2.4847720955e+03 2.9743657610e-04
2.4953662632e+03 2.9688610926e-04
2.5059604309e+03 2.9514993917e-04
2.5165545986e+03 2.9467871435e-04
2.5271487663e+03 2.9337992865e-04
2.5377429341e+03 2.9351445555e-04
2.5483371018e+03 2.9328081096e-04
2.5589312695e+03 2.9455263337e-04
2.5695254372e+03 2.9608148802e-04
2.5801196049e+03 2.9910534886e-04
2.5907137726e+03 3.0330183474e-04
2.6013079403e+03 3.0899120830e-04
2.6119021081e+03 3.1718093014e-04
2.6224962758e+03 3.2695136817e-04
2.6330904435e+03 3.4080292915e-04
2.6436846112e+03 3.5620593038e-04
2.6542787789e+03 3.7668239481e-04
2.6648729466e+03 3.9782970428e-04
2.6754671143e+03 4.2294447056e-04
2.6860612821e+03 4.4619013058e-04
2.6966554498e+03 4.6920764341e-04
2.7072496175e+03 4.8669441765e-04
2.7178437852e+03 4.9821458897e-04
2.7284379529e+03 5.0349879854e-04
