# Inner-scaled velocity profile
# Columns: y_plus    U_parallel_plus
3.8773702413e-01 3.8582832067e-01
1.1571785444e+00 1.1571785444e+00
1.9272980036e+00 1.9265643989e+00
2.6982779270e+00 2.6898511081e+00
3.4703198979e+00 3.4408908238e+00
4.2436415854e+00 4.1724834936e+00
5.0184737565e+00 4.8776015752e+00
5.7950575092e+00 5.5502072082e+00
6.5736418747e+00 6.1858899439e+00
7.3544818564e+00 6.7818952727e+00
8.1378369110e+00 7.3371266425e+00
8.9239698326e+00 7.8517507329e+00
9.7131459760e+00 8.3270142089e+00
1.0505632749e+01 8.7648137819e+00
1.1301699307e+01 9.1675601433e+00
1.2101616390e+01 9.5378349615e+00
1.2905656257e+01 9.8783455453e+00
1.3714092688e+01 1.0191683980e+01
1.4527201024e+01 1.0480367391e+01
1.5345258226e+01 1.0746687411e+01
1.6168542961e+01 1.0992807680e+01
1.6997335681e+01 1.1220662559e+01
1.7831918720e+01 1.1432062640e+01
1.8672576387e+01 1.1628605167e+01
1.9519595060e+01 1.1811769040e+01
2.0373263283e+01 1.1982836513e+01
2.1233871868e+01 1.2142984373e+01
2.2101713990e+01 1.2293221323e+01
2.2977085288e+01 1.2434475032e+01
2.3860283967e+01 1.2567542105e+01
2.4751610897e+01 1.2693168950e+01
2.5651369717e+01 1.2812008493e+01
2.6559866940e+01 1.2924686076e+01
2.7477412056e+01 1.3031753040e+01
2.8404317634e+01 1.3133735211e+01
2.9340899435e+01 1.3231086123e+01
3.0287476515e+01 1.3324227752e+01
3.1244371336e+01 1.3413514802e+01
3.2211909873e+01 1.3499278108e+01
3.3190421728e+01 1.3581799434e+01
3.4180240242e+01 1.3661349487e+01
3.5181702607e+01 1.3738162841e+01
3.6195149980e+01 1.3812466565e+01
3.7220927603e+01 1.3884455604e+01
3.8259384918e+01 1.3954318168e+01
3.9310875686e+01 1.4022217398e+01
4.0375758108e+01 1.4088313746e+01
4.1454394947e+01 1.4152746540e+01
4.2547153652e+01 1.4215654150e+01
4.3654406483e+01 1.4277162464e+01
4.4776530636e+01 1.4337403049e+01
4.5913908375e+01 1.4396496740e+01
4.7066927159e+01 1.4454561438e+01
4.8235979776e+01 1.4511694350e+01
4.9421464475e+01 1.4567983122e+01
5.0623785105e+01 1.4623498473e+01
5.1843351247e+01 1.4678310182e+01
5.3080578360e+01 1.4732482088e+01
5.4335887919e+01 1.4786080233e+01
5.5609707556e+01 1.4839159104e+01
5.6902471212e+01 1.4891769778e+01
5.8214619280e+01 1.4943960271e+01
5.9546598757e+01 1.4995789380e+01
6.0898863395e+01 1.5047319400e+01
6.2271873857e+01 1.5098617489e+01
6.3666097873e+01 1.5149741808e+01
6.5082010401e+01 1.5200739095e+01
6.6520093784e+01 1.5251636408e+01
6.7980837922e+01 1.5302451565e+01
6.9464740431e+01 1.5353193144e+01
7.0972306819e+01 1.5403862702e+01
7.2504050652e+01 1.5454448108e+01
7.4060493737e+01 1.5504931523e+01
7.5642166290e+01 1.5555296974e+01
7.7249607125e+01 1.5605546544e+01
7.8883363833e+01 1.5655707358e+01
8.0543992970e+01 1.5705835316e+01
8.2232060247e+01 1.5755996490e+01
8.3948140720e+01 1.5806256296e+01
8.5692818992e+01 1.5856672353e+01
8.7466689403e+01 1.5907290390e+01
8.9270356242e+01 1.5958136724e+01
9.1104433945e+01 1.6009223163e+01
9.2969547311e+01 1.6060560733e+01
9.4866331710e+01 1.6112174509e+01
9.6795433299e+01 1.6164088252e+01
9.8757509249e+01 1.6216305789e+01
1.0075322796e+02 1.6268807297e+01
1.0278326929e+02 1.6321571763e+01
1.0484832481e+02 1.6374607289e+01
1.0694909798e+02 1.6427956307e+01
1.0908630446e+02 1.6481653349e+01
1.1126067231e+02 1.6535711365e+01
1.1347294226e+02 1.6590145515e+01
1.1572386793e+02 1.6644961228e+01
1.1801421613e+02 1.6700131967e+01
1.2034476708e+02 1.6755617302e+01
1.2271631472e+02 1.6811390053e+01
1.2512966693e+02 1.6867433401e+01
1.2758564584e+02 1.6923739545e+01
1.3008508813e+02 1.6980329302e+01
1.3262884523e+02 1.7037230837e+01
1.3521778371e+02 1.7094444396e+01
1.3785278552e+02 1.7151946527e+01
1.4053474831e+02 1.7209711334e+01
1.4326458570e+02 1.7267751661e+01
1.4604322764e+02 1.7326159056e+01
1.4887162071e+02 1.7385070931e+01
1.5175072843e+02 1.7444619233e+01
1.5468153159e+02 1.7504916296e+01
1.5766502861e+02 1.7566010347e+01
1.6070223585e+02 1.7627851881e+01
1.6379418795e+02 1.7690288365e+01
1.6694193823e+02 1.7753183577e+01
1.7014655900e+02 1.7816541902e+01
1.7340914194e+02 1.7880441332e+01
1.7673079848e+02 1.7944849170e+01
1.8011266020e+02 1.8009580640e+01
1.8355587914e+02 1.8074539571e+01
1.8706162828e+02 1.8139819766e+01
1.9063110189e+02 1.8205574504e+01
1.9426551594e+02 1.8271967957e+01
1.9796610854e+02 1.8339079114e+01
2.0173414033e+02 1.8406798016e+01
2.0557089493e+02 1.8474883163e+01
2.0947767937e+02 1.8543188712e+01
2.1345582454e+02 1.8611839297e+01
2.1750668562e+02 1.8681030450e+01
2.2163164260e+02 1.8750791683e+01
2.2583210068e+02 1.8821122872e+01
2.3010949078e+02 1.8892070316e+01
2.3446527005e+02 1.8963594773e+01
2.3890092232e+02 1.9035588443e+01
2.4341795865e+02 1.9107911065e+01
2.4801791781e+02 1.9180465186e+01
2.5270236682e+02 1.9253412672e+01
2.5747290150e+02 1.9326877805e+01
2.6233114696e+02 1.9400616733e+01
2.6727875823e+02 1.9474537686e+01
2.7231742076e+02 1.9548658257e+01
2.7744885101e+02 1.9622941653e+01
2.8267479708e+02 1.9697536994e+01
2.8799703921e+02 1.9772550979e+01
2.9341739051e+02 1.9847906347e+01
2.9893769745e+02 1.9923445200e+01
3.0455984059e+02 1.9999084131e+01
3.1028573518e+02 2.0074709291e+01
3.1611733179e+02 2.0150292620e+01
3.2205661702e+02 2.0225987297e+01
3.2810561415e+02 2.0301621846e+01
3.3426638381e+02 2.0376856524e+01
3.4054102473e+02 2.0451560160e+01
3.4693167437e+02 2.0525577461e+01
3.5344050967e+02 2.0598692458e+01
3.6006974768e+02 2.0670803769e+01
3.6682164618e+02 2.0741677963e+01
3.7369850410e+02 2.0810957083e+01
3.8070266166e+02 2.0878498517e+01
3.8783649994e+02 2.0943987344e+01
3.9510243939e+02 2.1007137821e+01
4.0250293658e+02 2.1067869518e+01
4.1004047808e+02 2.1125871464e+01
4.1771756960e+02 2.1180824160e+01
4.2553671823e+02 2.1232578534e+01
4.3350040448e+02 2.1280795361e+01
4.4161104030e+02 2.1325051343e+01
4.4987090866e+02 2.1365235352e+01
4.5828208032e+02 2.1401325521e+01
4.6684630417e+02 2.1433329356e+01
4.7556486928e+02 2.1461399872e+01
4.8443844007e+02 2.1485709130e+01
4.9346687031e+02 2.1506270332e+01
5.0264900663e+02 2.1523219153e+01
5.1198249775e+02 2.1536976996e+01
5.2146362975e+02 2.1547998152e+01
5.3108721016e+02 2.1556741502e+01
5.4084652259e+02 2.1563507485e+01
5.5073336928e+02 2.1568580603e+01
5.6073821057e+02 2.1572369784e+01
5.7085039974e+02 2.1575132441e+01
5.8105849942e+02 2.1577067822e+01
5.9135065524e+02 2.1578410045e+01
6.0171499445e+02 2.1579288661e+01
6.1214001398e+02 2.1579830172e+01
6.2261492451e+02 2.1580176430e+01
6.3312992358e+02 2.1580405277e+01
6.4367638126e+02 2.1580558386e+01
6.5424693300e+02 2.1580659765e+01
6.6483548556e+02 2.1580723276e+01
6.7543715021e+02 2.1580760154e+01
6.8604812299e+02 2.1580782751e+01
6.9666553289e+02 2.1580796571e+01
7.0728727802e+02 2.1580806906e+01
7.1791186556e+02 2.1580817714e+01
7.2853826695e+02 2.1580829111e+01
7.3916579460e+02 2.1580840277e+01
7.4979400256e+02 2.1580850907e+01
7.6042261022e+02 2.1580860319e+01
7.7105144622e+02 2.1580869249e+01
7.8168040906e+02 2.1580877762e+01
7.9230944040e+02 2.1580885936e+01
8.0293850768e+02 2.1580893875e+01
8.1356759330e+02 2.1580901721e+01
8.2419668801e+02 2.1580909600e+01
8.3482578710e+02 2.1580917499e+01
8.4545488823e+02 2.1580925494e+01
8.5608399030e+02 2.1580933457e+01
8.6671309277e+02 2.1580941343e+01
8.7734219542e+02 2.1580949057e+01
8.8797129815e+02 2.1580956684e+01
8.9860040090e+02 2.1580964304e+01
9.0922950367e+02 2.1580972118e+01
9.1985860644e+02 2.1580980163e+01
9.3048770921e+02 2.1580988692e+01
9.4111681199e+02 2.1580997672e+01
9.5174591476e+02 2.1581007172e+01
9.6237501753e+02 2.1581017022e+01
9.7300412031e+02 2.1581027069e+01
9.8363322308e+02 2.1581037242e+01
9.9426232586e+02 2.1581047456e+01
1.0048914286e+03 2.1581057812e+01
1.0155205314e+03 2.1581068271e+01
1.0261496342e+03 2.1581078913e+01
1.0367787369e+03 2.1581089594e+01
1.0474078397e+03 2.1581100341e+01
1.0580369425e+03 2.1581110931e+01
1.0686660453e+03 2.1581121414e+01
1.0792951480e+03 2.1581131612e+01
1.0899242508e+03 2.1581141723e+01
1.1005533536e+03 2.1581151757e+01
1.1111824564e+03 2.1581162024e+01
1.1218115591e+03 2.1581172562e+01
1.1324406619e+03 2.1581183501e+01
1.1430697647e+03 2.1581194688e+01
1.1536988675e+03 2.1581205919e+01
1.1643279702e+03 2.1581216863e+01
1.1749570730e+03 2.1581227107e+01
1.1855861758e+03 2.1581236389e+01
1.1962152786e+03 2.1581244413e+01
1.2068443813e+03 2.1581251287e+01
1.2174734841e+03 2.1581257072e+01
1.2281025869e+03 2.1581262270e+01
1.2387316896e+03 2.1581267107e+01
1.2493607924e+03 2.1581272043e+01
1.2599898952e+03 2.1581277014e+01
1.2706189980e+03 2.1581282109e+01
1.2812481007e+03 2.1581286938e+01
1.2918772035e+03 2.1581291402e+01
1.3025063063e+03 2.1581295093e+01
1.3131354091e+03 2.1581298019e+01
1.3237645118e+03 2.1581300007e+01
1.3343936146e+03 2.1581301296e+01
1.3450227174e+03 2.1581301934e+01
1.3556518202e+03 2.1581302230e+01
1.3662809229e+03 2.1581302228e+01
1.3769100257e+03 2.1581302107e+01
1.3875391285e+03 2.1581301766e+01
1.3981682312e+03 2.1581301213e+01
1.4087973340e+03 2.1581300253e+01
1.4194264368e+03 2.1581298883e+01
1.4300555396e+03 2.1581297026e+01
1.4406846423e+03 2.1581294866e+01
1.4513137451e+03 2.1581292541e+01
1.4619428479e+03 2.1581290407e+01
1.4725719507e+03 2.1581288661e+01
1.4832010534e+03 2.1581287611e+01
1.4938301562e+03 2.1581287256e+01
1.5044592590e+03 2.1581287643e+01
1.5150883618e+03 2.1581288475e+01
1.5257174645e+03 2.1581289579e+01
1.5363465673e+03 2.1581290590e+01
1.5469756701e+03 2.1581291388e+01
1.5576047728e+03 2.1581291819e+01
1.5682338756e+03 2.1581291980e+01
1.5788629784e+03 2.1581292018e+01
1.5894920812e+03 2.1581292176e+01
1.6001211839e+03 2.1581292749e+01
1.6107502867e+03 2.1581293882e+01
1.6213793895e+03 2.1581295819e+01
1.6320084923e+03 2.1581298458e+01
1.6426375950e+03 2.1581301947e+01
1.6532666978e+03 2.1581305939e+01
1.6638958006e+03 2.1581310553e+01
1.6745249034e+03 2.1581315260e+01
1.6851540061e+03 2.1581320176e+01
1.6957831089e+03 2.1581324610e+01
1.7064122117e+03 2.1581328730e+01
1.7170413145e+03 2.1581331832e+01
1.7276704172e+03 2.1581334312e+01
1.7382995200e+03 2.1581335622e+01
1.7489286228e+03 2.1581336438e+01
1.7595577255e+03 2.1581336335e+01
1.7701868283e+03 2.1581336059e+01
1.7808159311e+03 2.1581335121e+01
1.7914450339e+03 2.1581334136e+01
1.8020741366e+03 2.1581332545e+01
1.8127032394e+03 2.1581330840e+01
1.8233323422e+03 2.1581328550e+01
1.8339614450e+03 2.1581326115e+01
1.8445905477e+03 2.1581323286e+01
1.8552196505e+03 2.1581320463e+01
1.8658487533e+03 2.1581317645e+01
1.8764778561e+03 2.1581315147e+01
1.8871069588e+03 2.1581313191e+01
1.8977360616e+03 2.1581311937e+01
1.9083651644e+03 2.1581311676e+01
1.9189942671e+03 2.1581312261e+01
1.9296233699e+03 2.1581313870e+01
1.9402524727e+03 2.1581316003e+01
1.9508815755e+03 2.1581318719e+01
1.9615106782e+03 2.1581321323e+01
1.9721397810e+03 2.1581323955e+01
1.9827688838e+03 2.1581326060e+01
1.9933979866e+03 2.1581328066e+01
2.0040270893e+03 2.1581329675e+01
2.0146561921e+03 2.1581331415e+01
2.0252852949e+03 2.1581333013e+01
2.0359143977e+03 2.1581334810e+01
2.0465435004e+03 2.1581336513e+01
2.0571726032e+03 2.1581338297e+01
2.0678017060e+03 2.1581340036e+01
2.0784308088e+03 2.1581341836e+01
2.0890599115e+03 2.1581343845e+01
2.0996890143e+03 2.1581346041e+01
2.1103181171e+03 2.1581348767e+01
2.1209472198e+03 2.1581351691e+01
2.1315763226e+03 2.1581355202e+01
2.1422054254e+03 2.1581358583e+01
2.1528345282e+03 2.1581362300e+01
2.1634636309e+03 2.1581365474e+01
2.1740927337e+03 2.1581368853e+01
2.1847218365e+03 2.1581371645e+01
2.1953509393e+03 2.1581374878e+01
2.2059800420e+03 2.1581377815e+01
2.2166091448e+03 2.1581381527e+01
2.2272382476e+03 2.1581385190e+01
2.2378673504e+03 2.1581389694e+01
2.2484964531e+03 2.1581394042e+01
2.2591255559e+03 2.1581398866e+01
2.2697546587e+03 2.1581403064e+01
2.2803837614e+03 2.1581407151e+01
2.2910128642e+03 2.1581410143e+01
2.3016419670e+03 2.1581412692e+01
2.3122710698e+03 2.1581414100e+01
2.3229001725e+03 2.1581415243e+01
2.3335292753e+03 2.1581415597e+01
2.3441583781e+03 2.1581416104e+01
2.3547874809e+03 2.1581416177e+01
2.3654165836e+03 2.1581416699e+01
2.3760456864e+03 2.1581416917e+01
2.3866747892e+03 2.1581417698e+01
2.3973038920e+03 2.1581418173e+01
2.4079329947e+03 2.1581419331e+01
2.4185620975e+03 2.1581420265e+01
2.4291912003e+03 2.1581422130e+01
2.4398203030e+03 2.1581423888e+01
2.4504494058e+03 2.1581426715e+01
2.4610785086e+03 2.1581429298e+01
2.4717076114e+03 2.1581432819e+01
2.4823367141e+03 2.1581435773e+01
2.4929658169e+03 2.1581439483e+01
2.5035949197e+03 2.1581442359e+01
2.5142240225e+03 2.1581445937e+01
2.5248531252e+03 2.1581448602e+01
2.5354822280e+03 2.1581452154e+01
2.5461113308e+03 2.1581454989e+01
2.5567404336e+03 2.1581459113e+01
2.5673695363e+03 2.1581462786e+01
2.5779986391e+03 2.1581468040e+01
2.5886277419e+03 2.1581472838e+01
2.5992568447e+03 2.1581479219e+01
2.6098859474e+03 2.1581484928e+01
2.6205150502e+03 2.1581492172e+01
2.6311441530e+03 2.1581498607e+01
2.6417732557e+03 2.1581506484e+01
2.6524023585e+03 2.1581513371e+01
2.6630314613e+03 2.1581521185e+01
2.6736605641e+03 2.1581527745e+01
2.6842896668e+03 2.1581534341e+01
2.6949187696e+03 2.1581539742e+01
2.7055478724e+03 2.1581544090e+01
2.7161769752e+03 2.1581547067e+01
2.7268060779e+03 2.1581546867e+01
2.7374351807e+03 2.1581545239e+01
