# Mean flow yaw angle vs inner units (degrees)
# Columns: y_plus    Phi_deg
3.8773702413e-01 8.5015522791e+00
1.1571785444e+00 8.5025297234e+00
1.9272980036e+00 8.5017459034e+00
2.6982779270e+00 8.4998926699e+00
3.4703198979e+00 8.4974881318e+00
4.2436415854e+00 8.4949423346e+00
5.0184737565e+00 8.4924862867e+00
5.7950575092e+00 8.4901787047e+00
6.5736418747e+00 8.4879300894e+00
7.3544818564e+00 8.4855902204e+00
8.1378369110e+00 8.4830017490e+00
8.9239698326e+00 8.4800565008e+00
9.7131459760e+00 8.4766993996e+00
1.0505632749e+01 8.4729339343e+00
1.1301699307e+01 8.4687947942e+00
1.2101616390e+01 8.4643356748e+00
1.2905656257e+01 8.4596028706e+00
1.3714092688e+01 8.4546326583e+00
1.4527201024e+01 8.4494409533e+00
1.5345258226e+01 8.4440355151e+00
1.6168542961e+01 8.4384163642e+00
1.6997335681e+01 8.4325879279e+00
1.7831918720e+01 8.4265552266e+00
1.8672576387e+01 8.4203316890e+00
1.9519595060e+01 8.4139340292e+00
2.0373263283e+01 8.4073880323e+00
2.1233871868e+01 8.4007222617e+00
2.2101713990e+01 8.3939700073e+00
2.2977085288e+01 8.3871599303e+00
2.3860283967e+01 8.3803169555e+00
2.4751610897e+01 8.3734583268e+00
2.5651369717e+01 8.3665994199e+00
2.6559866940e+01 8.3597507750e+00
2.7477412056e+01 8.3529206309e+00
2.8404317634e+01 8.3461113740e+00
2.9340899435e+01 8.3393216946e+00
3.0287476515e+01 8.3325408869e+00
3.1244371336e+01 8.3257466700e+00
3.2211909873e+01 8.3188979558e+00
3.3190421728e+01 8.3119377874e+00
3.4180240242e+01 8.3048006979e+00
3.5181702607e+01 8.2974320392e+00
3.6195149980e+01 8.2898038059e+00
3.7220927603e+01 8.2819261753e+00
3.8259384918e+01 8.2738429710e+00
3.9310875686e+01 8.2656222174e+00
4.0375758108e+01 8.2573404416e+00
4.1454394947e+01 8.2490701429e+00
4.2547153652e+01 8.2408678055e+00
4.3654406483e+01 8.2327709676e+00
4.4776530636e+01 8.2247949204e+00
4.5913908375e+01 8.2169337753e+00
4.7066927159e+01 8.2091677630e+00
4.8235979776e+01 8.2014780568e+00
4.9421464475e+01 8.1938553943e+00
5.0623785105e+01 8.1863018114e+00
5.1843351247e+01 8.1788305679e+00
5.3080578360e+01 8.1714685561e+00
5.4335887919e+01 8.1642434946e+00
5.5609707556e+01 8.1571621373e+00
5.6902471212e+01 8.1501984345e+00
5.8214619280e+01 8.1433030171e+00
5.9546598757e+01 8.1364211695e+00
6.0898863395e+01 8.1295107574e+00
6.2271873857e+01 8.1225594340e+00
6.3666097873e+01 8.1155991790e+00
6.5082010401e+01 8.1086922415e+00
6.6520093784e+01 8.1018807488e+00
6.7980837922e+01 8.0951457090e+00
6.9464740431e+01 8.0884185141e+00
7.0972306819e+01 8.0816170087e+00
7.2504050652e+01 8.0746650462e+00
7.4060493737e+01 8.0675029481e+00
7.5642166290e+01 8.0601063762e+00
7.7249607125e+01 8.0524781480e+00
7.8883363833e+01 8.0446162445e+00
8.0543992970e+01 8.0365110871e+00
8.2232060247e+01 8.0281770864e+00
8.3948140720e+01 8.0196460874e+00
8.5692818992e+01 8.0109104766e+00
8.7466689403e+01 8.0018834233e+00
8.9270356242e+01 7.9924480519e+00
9.1104433945e+01 7.9825420004e+00
9.2969547311e+01 7.9721769496e+00
9.4866331710e+01 7.9613767896e+00
9.6795433299e+01 7.9501396344e+00
9.8757509249e+01 7.9385095886e+00
1.0075322796e+02 7.9265923524e+00
1.0278326929e+02 7.9144965078e+00
1.0484832481e+02 7.9023334715e+00
1.0694909798e+02 7.8902212688e+00
1.0908630446e+02 7.8782938601e+00
1.1126067231e+02 7.8666889774e+00
1.1347294226e+02 7.8554670366e+00
1.1572386793e+02 7.8445590742e+00
1.1801421613e+02 7.8337758705e+00
1.2034476708e+02 7.8228882299e+00
1.2271631472e+02 7.8117595016e+00
1.2512966693e+02 7.8003731887e+00
1.2758564584e+02 7.7887483783e+00
1.3008508813e+02 7.7768830655e+00
1.3262884523e+02 7.7647849568e+00
1.3521778371e+02 7.7524681250e+00
1.3785278552e+02 7.7399880118e+00
1.4053474831e+02 7.7274839827e+00
1.4326458570e+02 7.7149955491e+00
1.4604322764e+02 7.7024020378e+00
1.4887162071e+02 7.6896570462e+00
1.5175072843e+02 7.6767669206e+00
1.5468153159e+02 7.6635773197e+00
1.5766502861e+02 7.6499371102e+00
1.6070223585e+02 7.6359994868e+00
1.6379418795e+02 7.6222056553e+00
1.6694193823e+02 7.6087992912e+00
1.7014655900e+02 7.5955116960e+00
1.7340914194e+02 7.5819758449e+00
1.7673079848e+02 7.5679521516e+00
1.8011266020e+02 7.5531600263e+00
1.8355587914e+02 7.5373648941e+00
1.8706162828e+02 7.5207944486e+00
1.9063110189e+02 7.5039996159e+00
1.9426551594e+02 7.4873178942e+00
1.9796610854e+02 7.4707332258e+00
2.0173414033e+02 7.4541905774e+00
2.0557089493e+02 7.4378333858e+00
2.0947767937e+02 7.4218515028e+00
2.1345582454e+02 7.4063415460e+00
2.1750668562e+02 7.3908104995e+00
2.2163164260e+02 7.3746336316e+00
2.2583210068e+02 7.3577986375e+00
2.3010949078e+02 7.3405885572e+00
2.3446527005e+02 7.3230388104e+00
2.3890092232e+02 7.3050328003e+00
2.4341795865e+02 7.2867053199e+00
2.4801791781e+02 7.2680000967e+00
2.5270236682e+02 7.2484644542e+00
2.5747290150e+02 7.2285376701e+00
2.6233114696e+02 7.2086513831e+00
2.6727875823e+02 7.1888853903e+00
2.7231742076e+02 7.1690332918e+00
2.7744885101e+02 7.1488431269e+00
2.8267479708e+02 7.1287196710e+00
2.8799703921e+02 7.1088527472e+00
2.9341739051e+02 7.0888171002e+00
2.9893769745e+02 7.0680377597e+00
3.0455984059e+02 7.0463331657e+00
3.1028573518e+02 7.0242102745e+00
3.1611733179e+02 7.0022371260e+00
3.2205661702e+02 6.9805440688e+00
3.2810561415e+02 6.9594335676e+00
3.3426638381e+02 6.9389432506e+00
3.4054102473e+02 6.9189650766e+00
3.4693167437e+02 6.8996280004e+00
3.5344050967e+02 6.8804881784e+00
3.6006974768e+02 6.8615713337e+00
3.6682164618e+02 6.8430342642e+00
3.7369850410e+02 6.8247845140e+00
3.8070266166e+02 6.8073011352e+00
3.8783649994e+02 6.7909458811e+00
3.9510243939e+02 6.7757109482e+00
4.0250293658e+02 6.7613141433e+00
4.1004047808e+02 6.7474920933e+00
4.1771756960e+02 6.7341985565e+00
4.2553671823e+02 6.7215956332e+00
4.3350040448e+02 6.7104226521e+00
4.4161104030e+02 6.7009200506e+00
4.4987090866e+02 6.6924204768e+00
4.5828208032e+02 6.6844714962e+00
4.6684630417e+02 6.6774932945e+00
4.7556486928e+02 6.6715806498e+00
4.8443844007e+02 6.6665769972e+00
4.9346687031e+02 6.6623183841e+00
5.0264900663e+02 6.6587995836e+00
5.1198249775e+02 6.6559415707e+00
5.2146362975e+02 6.6537558121e+00
5.3108721016e+02 6.6520434489e+00
5.4084652259e+02 6.6505466809e+00
5.5073336928e+02 6.6494060361e+00
5.6073821057e+02 6.6487107834e+00
5.7085039974e+02 6.6482813146e+00
5.8105849942e+02 6.6480572800e+00
5.9135065524e+02 6.6480658801e+00
6.0171499445e+02 6.6480862945e+00
6.1214001398e+02 6.6480716901e+00
6.2261492451e+02 6.6480901185e+00
6.3312992358e+02 6.6481460777e+00
6.4367638126e+02 6.6481618537e+00
6.5424693300e+02 6.6481162086e+00
6.6483548556e+02 6.6480819719e+00
6.7543715021e+02 6.6480709337e+00
6.8604812299e+02 6.6480665359e+00
6.9666553289e+02 6.6480617729e+00
7.0728727802e+02 6.6480622348e+00
7.1791186556e+02 6.6480697907e+00
7.2853826695e+02 6.6480764980e+00
7.3916579460e+02 6.6480803802e+00
7.4979400256e+02 6.6480797878e+00
7.6042261022e+02 6.6480754478e+00
7.7105144622e+02 6.6480703326e+00
7.8168040906e+02 6.6480661441e+00
7.9230944040e+02 6.6480628118e+00
8.0293850768e+02 6.6480602266e+00
8.1356759330e+02 6.6480582449e+00
8.2419668801e+02 6.6480566596e+00
8.3482578710e+02 6.6480553040e+00
8.4545488823e+02 6.6480540156e+00
8.5608399030e+02 6.6480526767e+00
8.6671309277e+02 6.6480511267e+00
8.7734219542e+02 6.6480492261e+00
8.8797129815e+02 6.6480468696e+00
8.9860040090e+02 6.6480440731e+00
9.0922950367e+02 6.6480409349e+00
9.1985860644e+02 6.6480376447e+00
9.3048770921e+02 6.6480343029e+00
9.4111681199e+02 6.6480310108e+00
9.5174591476e+02 6.6480277507e+00
9.6237501753e+02 6.6480245045e+00
9.7300412031e+02 6.6480212319e+00
9.8363322308e+02 6.6480178882e+00
9.9426232586e+02 6.6480144903e+00
1.0048914286e+03 6.6480110509e+00
1.0155205314e+03 6.6480076554e+00
1.0261496342e+03 6.6480043386e+00
1.0367787369e+03 6.6480011573e+00
1.0474078397e+03 6.6479980575e+00
1.0580369425e+03 6.6479950283e+00
1.0686660453e+03 6.6479919813e+00
1.0792951480e+03 6.6479889374e+00
1.0899242508e+03 6.6479858494e+00
1.1005533536e+03 6.6479827601e+00
1.1111824564e+03 6.6479796226e+00
1.1218115591e+03 6.6479764519e+00
1.1324406619e+03 6.6479732000e+00
1.1430697647e+03 6.6479698786e+00
1.1536988675e+03 6.6479665102e+00
1.1643279702e+03 6.6479631682e+00
1.1749570730e+03 6.6479599803e+00
1.1855861758e+03 6.6479570465e+00
1.1962152786e+03 6.6479544890e+00
1.2068443813e+03 6.6479522970e+00
1.2174734841e+03 6.6479504622e+00
1.2281025869e+03 6.6479488260e+00
1.2387316896e+03 6.6479473099e+00
1.2493607924e+03 6.6479457609e+00
1.2599898952e+03 6.6479441953e+00
1.2706189980e+03 6.6479425839e+00
1.2812481007e+03 6.6479410541e+00
1.2918772035e+03 6.6479396438e+00
1.3025063063e+03 6.6479384881e+00
1.3131354091e+03 6.6479375883e+00
1.3237645118e+03 6.6479369975e+00
1.3343936146e+03 6.6479366335e+00
1.3450227174e+03 6.6479364748e+00
1.3556518202e+03 6.6479364180e+00
1.3662809229e+03 6.6479364473e+00
1.3769100257e+03 6.6479365056e+00
1.3875391285e+03 6.6479366257e+00
1.3981682312e+03 6.6479368067e+00
1.4087973340e+03 6.6479371093e+00
1.4194264368e+03 6.6479375350e+00
1.4300555396e+03 6.6479381070e+00
1.4406846423e+03 6.6479387684e+00
1.4513137451e+03 6.6479394757e+00
1.4619428479e+03 6.6479401193e+00
1.4725719507e+03 6.6479406378e+00
1.4832010534e+03 6.6479409377e+00
1.4938301562e+03 6.6479410190e+00
1.5044592590e+03 6.6479408697e+00
1.5150883618e+03 6.6479405811e+00
1.5257174645e+03 6.6479402075e+00
1.5363465673e+03 6.6479398616e+00
1.5469756701e+03 6.6479395797e+00
1.5576047728e+03 6.6479394092e+00
1.5682338756e+03 6.6479393196e+00
1.5788629784e+03 6.6479392680e+00
1.5894920812e+03 6.6479391779e+00
1.6001211839e+03 6.6479389613e+00
1.6107502867e+03 6.6479385701e+00
1.6213793895e+03 6.6479379311e+00
1.6320084923e+03 6.6479370738e+00
1.6426375950e+03 6.6479359559e+00
1.6532666978e+03 6.6479346841e+00
1.6638958006e+03 6.6479332257e+00
1.6745249034e+03 6.6479317442e+00
1.6851540061e+03 6.6479302058e+00
1.6957831089e+03 6.6479288217e+00
1.7064122117e+03 6.6479275405e+00
1.7170413145e+03 6.6479265761e+00
1.7276704172e+03 6.6479258073e+00
1.7382995200e+03 6.6479253983e+00
1.7489286228e+03 6.6479251426e+00
1.7595577255e+03 6.6479251662e+00
1.7701868283e+03 6.6479252415e+00
1.7808159311e+03 6.6479255144e+00
1.7914450339e+03 6.6479258001e+00
1.8020741366e+03 6.6479262659e+00
1.8127032394e+03 6.6479267670e+00
1.8233323422e+03 6.6479274437e+00
1.8339614450e+03 6.6479281676e+00
1.8445905477e+03 6.6479290096e+00
1.8552196505e+03 6.6479298535e+00
1.8658487533e+03 6.6479306924e+00
1.8764778561e+03 6.6479314352e+00
1.8871069588e+03 6.6479320077e+00
1.8977360616e+03 6.6479323649e+00
1.9083651644e+03 6.6479324117e+00
1.9189942671e+03 6.6479321986e+00
1.9296233699e+03 6.6479316650e+00
1.9402524727e+03 6.6479309713e+00
1.9508815755e+03 6.6479300930e+00
1.9615106782e+03 6.6479292524e+00
1.9721397810e+03 6.6479283991e+00
1.9827688838e+03 6.6479277148e+00
1.9933979866e+03 6.6479270587e+00
2.0040270893e+03 6.6479265356e+00
2.0146561921e+03 6.6479259723e+00
2.0252852949e+03 6.6479254670e+00
2.0359143977e+03 6.6479249016e+00
2.0465435004e+03 6.6479243811e+00
2.0571726032e+03 6.6479238354e+00
2.0678017060e+03 6.6479233180e+00
2.0784308088e+03 6.6479227784e+00
2.0890599115e+03 6.6479221856e+00
2.0996890143e+03 6.6479215288e+00
2.1103181171e+03 6.6479207171e+00
2.1209472198e+03 6.6479198376e+00
2.1315763226e+03 6.6479187846e+00
2.1422054254e+03 6.6479177678e+00
2.1528345282e+03 6.6479166553e+00
2.1634636309e+03 6.6479157105e+00
2.1740927337e+03 6.6479147090e+00
2.1847218365e+03 6.6479138898e+00
2.1953509393e+03 6.6479129369e+00
2.2059800420e+03 6.6479120760e+00
2.2166091448e+03 6.6479109736e+00
2.2272382476e+03 6.6479098869e+00
2.2378673504e+03 6.6479085360e+00
2.2484964531e+03 6.6479072361e+00
2.2591255559e+03 6.6479057860e+00
2.2697546587e+03 6.6479045353e+00
2.2803837614e+03 6.6479033181e+00
2.2910128642e+03 6.6479024468e+00
2.3016419670e+03 6.6479017123e+00
2.3122710698e+03 6.6479013355e+00
2.3229001725e+03 6.6479010398e+00
2.3335292753e+03 6.6479009883e+00
2.3441583781e+03 6.6479008883e+00
2.3547874809e+03 6.6479009180e+00
2.3654165836e+03 6.6479008110e+00
2.3760456864e+03 6.6479007895e+00
2.3866747892e+03 6.6479006017e+00
2.3973038920e+03 6.6479004962e+00
2.4079329947e+03 6.6479001938e+00
2.4185620975e+03 6.6478999462e+00
2.4291912003e+03 6.6478994311e+00
2.4398203030e+03 6.6478989361e+00
2.4504494058e+03 6.6478981347e+00
2.4610785086e+03 6.6478973993e+00
2.4717076114e+03 6.6478963970e+00
2.4823367141e+03 6.6478955658e+00
2.4929658169e+03 6.6478945181e+00
2.5035949197e+03 6.6478937295e+00
2.5142240225e+03 6.6478927341e+00
2.5248531252e+03 6.6478920267e+00
2.5354822280e+03 6.6478910462e+00
2.5461113308e+03 6.6478902925e+00
2.5567404336e+03 6.6478891316e+00
2.5673695363e+03 6.6478881113e+00
2.5779986391e+03 6.6478865864e+00
2.5886277419e+03 6.6478851996e+00
2.5992568447e+03 6.6478833041e+00
2.6098859474e+03 6.6478816073e+00
2.6205150502e+03 6.6478794167e+00
2.6311441530e+03 6.6478774604e+00
2.6417732557e+03 6.6478750400e+00
2.6524023585e+03 6.6478729049e+00
2.6630314613e+03 6.6478704682e+00
2.6736605641e+03 6.6478683959e+00
2.6842896668e+03 6.6478663040e+00
2.6949187696e+03 6.6478645573e+00
2.7055478724e+03 6.6478631530e+00
2.7161769752e+03 6.6478621710e+00
2.7268060779e+03 6.6478622590e+00
2.7374351807e+03 6.6478627905e+00
