# Momentum thickness as function of Re_theta
# Columns: Re_theta   theta
8.7458540668e+02 1.2561111477e-01
8.7488925598e+02 1.2565332690e-01
8.7521895891e+02 1.2569921471e-01
8.7557874390e+02 1.2575028392e-01
8.7594916871e+02 1.2580239422e-01
8.7633191723e+02 1.2585654094e-01
8.7674102483e+02 1.2591402508e-01
8.7715968964e+02 1.2597233280e-01
8.7757026434e+02 1.2602714972e-01
8.7800388246e+02 1.2608401793e-01
8.7889214752e+02 1.2620355675e-01
8.7978327738e+02 1.2632453018e-01
8.8064141213e+02 1.2644159848e-01
8.8146780002e+02 1.2655595405e-01
8.8229214148e+02 1.2667074032e-01
8.8311481808e+02 1.2678658418e-01
8.8394847281e+02 1.2690480940e-01
8.8482330986e+02 1.2703065878e-01
8.8576333490e+02 1.2716586026e-01
8.8677151068e+02 1.2731039675e-01
8.8783635989e+02 1.2746174990e-01
8.8896190931e+02 1.2762210168e-01
8.9015206635e+02 1.2779110776e-01
8.9142432795e+02 1.2797104464e-01
8.9275398099e+02 1.2815732338e-01
8.9408364919e+02 1.2834338789e-01
8.9541755431e+02 1.2852955036e-01
8.9678197779e+02 1.2872018118e-01
8.9816954607e+02 1.2891321784e-01
8.9954165909e+02 1.2910398487e-01
9.0088184731e+02 1.2928969585e-01
9.0265857996e+02 1.2953716966e-01
9.0446376849e+02 1.2978936956e-01
9.0623668921e+02 1.3003802105e-01
9.0798257744e+02 1.3028195140e-01
9.0969133846e+02 1.3052043654e-01
9.1137375422e+02 1.3075477445e-01
9.1304444114e+02 1.3098797929e-01
9.1470161427e+02 1.3121867697e-01
9.1633178877e+02 1.3144583849e-01
9.1792485038e+02 1.3166748892e-01
9.1947462887e+02 1.3188371586e-01
9.2098550542e+02 1.3209433224e-01
9.2186963532e+02 1.3224514072e-01
9.2188707406e+02 1.3224697908e-01
9.2192077217e+02 1.3225198108e-01
9.2198488048e+02 1.3225974345e-01
9.2203741853e+02 1.3226807713e-01
9.2216759160e+02 1.3228309142e-01
9.2221666376e+02 1.3229256046e-01
9.2243210107e+02 1.3231786852e-01
9.2244200800e+02 1.3229913530e-01
9.2245041897e+02 1.3232428162e-01
9.2268420008e+02 1.3235841597e-01
9.2278371045e+02 1.3236501659e-01
9.2294147987e+02 1.3239553694e-01
9.2321971620e+02 1.3242526504e-01
9.2322869546e+02 1.3243638161e-01
9.2356632836e+02 1.3248395952e-01
9.2373095941e+02 1.3249569663e-01
9.2383636746e+02 1.3249219656e-01
9.2396026909e+02 1.3253778206e-01
9.2432764454e+02 1.3257841836e-01
9.2439530305e+02 1.3259664126e-01
9.2485173121e+02 1.3265734892e-01
9.2501165672e+02 1.3267321272e-01
9.2531559122e+02 1.3271920465e-01
9.2545901462e+02 1.3271735414e-01
9.2576510496e+02 1.3277869384e-01
9.2577095613e+02 1.3277897155e-01
9.2618553101e+02 1.3283480917e-01
9.2658547036e+02 1.3288989857e-01
9.2659949358e+02 1.3289105192e-01
9.2702715296e+02 1.3294776328e-01
9.2718102097e+02 1.3295498360e-01
9.2745846116e+02 1.3300775044e-01
9.2746678019e+02 1.3301035394e-01
9.2792888141e+02 1.3307273638e-01
9.2836952529e+02 1.3313382732e-01
9.2843503949e+02 1.3314493851e-01
9.2874973492e+02 1.3317156310e-01
9.2897693935e+02 1.3322354385e-01
9.2926754722e+02 1.3325569035e-01
9.2953546118e+02 1.3330435046e-01
9.3009673499e+02 1.3338573990e-01
9.3012114409e+02 1.3335980973e-01
9.3012873264e+02 1.3337199689e-01
9.3065284892e+02 1.3346535580e-01
9.3094616597e+02 1.3348248941e-01
9.3118863786e+02 1.3354190238e-01
9.3123340746e+02 1.3351121082e-01
9.3169098602e+02 1.3358188185e-01
9.3170786724e+02 1.3361557847e-01
9.3208475479e+02 1.3362497115e-01
9.3222283949e+02 1.3368918812e-01
9.3232508277e+02 1.3366581447e-01
9.3271255561e+02 1.3370867309e-01
9.3282737319e+02 1.3373102653e-01
9.3285959458e+02 1.3377875902e-01
9.3312220802e+02 1.3376333433e-01
9.3317330062e+02 1.3377543906e-01
9.3332324814e+02 1.3379143049e-01
9.3334013200e+02 1.3379535359e-01
9.3354583187e+02 1.3387465247e-01
9.3424651979e+02 1.3397163484e-01
9.3494480871e+02 1.3406903163e-01
9.3564098599e+02 1.3416630657e-01
9.3633605761e+02 1.3426415329e-01
9.3703052090e+02 1.3436111525e-01
9.3772618033e+02 1.3445797737e-01
9.3841700537e+02 1.3455353531e-01
9.3909481108e+02 1.3464830513e-01
9.3976291724e+02 1.3474192297e-01
9.4043219195e+02 1.3483621539e-01
9.4109577549e+02 1.3492896057e-01
9.4175535816e+02 1.3502103676e-01
9.4241713915e+02 1.3511243698e-01
9.4306461944e+02 1.3520218422e-01
9.4367355373e+02 1.3528674879e-01
9.4424385347e+02 1.3536686733e-01
9.4481509774e+02 1.3544648726e-01
9.4541979930e+02 1.3553093571e-01
9.4604023215e+02 1.3561691869e-01
9.4662192401e+02 1.3569707737e-01
9.4712315013e+02 1.3576417736e-01
9.4756059365e+02 1.3582221127e-01
9.4796054749e+02 1.3587509658e-01
9.4867223376e+02 1.3597204965e-01
9.4942420359e+02 1.3607416567e-01
9.5010508883e+02 1.3616703259e-01
9.5074117018e+02 1.3625391277e-01
9.5134815374e+02 1.3633782322e-01
9.5192563340e+02 1.3641753551e-01
9.5247663581e+02 1.3649473877e-01
9.5300603829e+02 1.3656991356e-01
9.5352461215e+02 1.3664525833e-01
9.5404234422e+02 1.3672031044e-01
9.5457021309e+02 1.3679680968e-01
9.5511169534e+02 1.3687433139e-01
9.5565693827e+02 1.3695226491e-01
9.5619498599e+02 1.3702801232e-01
9.5672245046e+02 1.3710233532e-01
9.5725649984e+02 1.3717739533e-01
9.5779032180e+02 1.3725351453e-01
9.5829816724e+02 1.3732606129e-01
9.5877423395e+02 1.3739483405e-01
9.5923611463e+02 1.3746122535e-01
9.5970671674e+02 1.3752910274e-01
9.6016984669e+02 1.3759499756e-01
9.6060831050e+02 1.3765700909e-01
9.6102372469e+02 1.3771461194e-01
9.6142690367e+02 1.3777104590e-01
9.6182141962e+02 1.3782681815e-01
9.6221198416e+02 1.3788341046e-01
9.6260921563e+02 1.3794028575e-01
9.6301169718e+02 1.3799750826e-01
9.6341553403e+02 1.3805396778e-01
9.6380086634e+02 1.3810832048e-01
9.6416564887e+02 1.3815961808e-01
9.6451120904e+02 1.3820902410e-01
9.6486913741e+02 1.3825994037e-01
9.6525842698e+02 1.3831541197e-01
9.6565557210e+02 1.3837067136e-01
9.6601985928e+02 1.3842071953e-01
9.6633189720e+02 1.3846224533e-01
9.6661009645e+02 1.3849927244e-01
9.6725748095e+02 1.3858717684e-01
9.6784625237e+02 1.3866814991e-01
9.6838034919e+02 1.3874176157e-01
9.6888109746e+02 1.3881146004e-01
9.6936033099e+02 1.3887781146e-01
9.6981430284e+02 1.3894156548e-01
9.7022903375e+02 1.3900033665e-01
9.7060748769e+02 1.3905544969e-01
9.7095742028e+02 1.3910648933e-01
9.7130694526e+02 1.3915798435e-01
9.7167101038e+02 1.3921147859e-01
9.7204366884e+02 1.3926718865e-01
9.7241539874e+02 1.3932244640e-01
9.7278792988e+02 1.3937794731e-01
9.7315594015e+02 1.3943255337e-01
9.7350398807e+02 1.3948562617e-01
9.7381782391e+02 1.3953378362e-01
9.7409980714e+02 1.3957746113e-01
9.7436925615e+02 1.3961832366e-01
9.7464631186e+02 1.3966050216e-01
9.7493971119e+02 1.3970438263e-01
9.7525397390e+02 1.3975112446e-01
9.7557865248e+02 1.3979827703e-01
9.7590373578e+02 1.3984557202e-01
9.7622631754e+02 1.3989210548e-01
9.7654417504e+02 1.3993885969e-01
9.7684585940e+02 1.3998348779e-01
9.7713293349e+02 1.4002716623e-01
9.7740686189e+02 1.4006866791e-01
9.7767611949e+02 1.4010955346e-01
9.7795177319e+02 1.4015051959e-01
9.7824027030e+02 1.4019380247e-01
9.7854144718e+02 1.4023897313e-01
9.7885853979e+02 1.4028726350e-01
9.7920221836e+02 1.4033847478e-01
9.7957076099e+02 1.4039236476e-01
9.7995657349e+02 1.4044658565e-01
9.8036484741e+02 1.4050327681e-01
9.8079117106e+02 1.4056138698e-01
9.8119768529e+02 1.4061711254e-01
9.8156467256e+02 1.4066742700e-01
9.8193014271e+02 1.4071874104e-01
9.8232437823e+02 1.4077414049e-01
9.8272109899e+02 1.4083087373e-01
9.8308263718e+02 1.4088322513e-01
9.8343631518e+02 1.4093597532e-01
9.8381242320e+02 1.4099170804e-01
9.8419355302e+02 1.4104849033e-01
9.8454986735e+02 1.4110122240e-01
9.8488329472e+02 1.4115097623e-01
9.8521069975e+02 1.4119876000e-01
9.8552517028e+02 1.4124460584e-01
9.8582604749e+02 1.4128833692e-01
9.8611255569e+02 1.4133121466e-01
9.8638743518e+02 1.4137241152e-01
9.8666076693e+02 1.4141351206e-01
9.8695458053e+02 1.4145594556e-01
9.8727899173e+02 1.4150201674e-01
9.8760483230e+02 1.4154690287e-01
9.8789952989e+02 1.4158708260e-01
9.8815476543e+02 1.4162035318e-01
9.8838901206e+02 1.4165047852e-01
9.8862517361e+02 1.4168054076e-01
9.8887239450e+02 1.4171316454e-01
9.8912493733e+02 1.4174635340e-01
9.8937058407e+02 1.4177903733e-01
9.8961091812e+02 1.4181061820e-01
9.8984628932e+02 1.4184213564e-01
9.9006736863e+02 1.4187083106e-01
9.9040641610e+02 1.4191573035e-01
9.9092212093e+02 1.4198463528e-01
9.9140422454e+02 1.4204995796e-01
9.9186627901e+02 1.4211246888e-01
9.9231344247e+02 1.4217329412e-01
9.9273695746e+02 1.4223006384e-01
9.9314643041e+02 1.4228483238e-01
9.9354081196e+02 1.4233622512e-01
9.9391143758e+02 1.4238416907e-01
9.9425649011e+02 1.4242819205e-01
9.9458446555e+02 1.4247113168e-01
9.9489915888e+02 1.4251264122e-01
9.9520827617e+02 1.4255458356e-01
9.9552751998e+02 1.4259835292e-01
9.9585561556e+02 1.4264505717e-01
9.9618236114e+02 1.4269227748e-01
9.9649765164e+02 1.4273905894e-01
9.9681537237e+02 1.4278598856e-01
9.9713232890e+02 1.4283347721e-01
9.9743563111e+02 1.4287868207e-01
9.9772894969e+02 1.4292284337e-01
9.9801734110e+02 1.4296579975e-01
9.9829572756e+02 1.4300827749e-01
9.9855940069e+02 1.4304891361e-01
9.9882287972e+02 1.4309031823e-01
9.9909495063e+02 1.4313232746e-01
9.9937006199e+02 1.4317511106e-01
9.9965117264e+02 1.4321810405e-01
9.9993242314e+02 1.4326083723e-01
1.0002027004e+03 1.4330018360e-01
1.0004486595e+03 1.4333551699e-01
1.0006780830e+03 1.4336797360e-01
1.0009192278e+03 1.4340293761e-01
1.0011747288e+03 1.4343941224e-01
1.0014164774e+03 1.4347423994e-01
1.0016281633e+03 1.4350482877e-01
1.0018277496e+03 1.4353531134e-01
1.0020501874e+03 1.4356898993e-01
1.0022893951e+03 1.4360466419e-01
1.0025238230e+03 1.4363782910e-01
1.0027442575e+03 1.4366875239e-01
1.0029653242e+03 1.4369928172e-01
1.0031980666e+03 1.4373212489e-01
1.0034445533e+03 1.4376647342e-01
1.0036971354e+03 1.4380208336e-01
1.0039457493e+03 1.4383655101e-01
1.0041775977e+03 1.4386869005e-01
1.0043807955e+03 1.4389526953e-01
1.0045388721e+03 1.4391497197e-01
1.0046543443e+03 1.4392816624e-01
1.0047659492e+03 1.4394240400e-01
1.0051411532e+03 1.4399416603e-01
1.0055506191e+03 1.4405240077e-01
1.0059322130e+03 1.4410705255e-01
1.0062972989e+03 1.4416058254e-01
1.0066405987e+03 1.4421148066e-01
1.0069614351e+03 1.4426044461e-01
1.0072683744e+03 1.4430708116e-01
1.0075850943e+03 1.4435496002e-01
1.0079236811e+03 1.4440463314e-01
1.0082741412e+03 1.4445599401e-01
1.0086222194e+03 1.4450632369e-01
1.0089945226e+03 1.4456013628e-01
1.0094137983e+03 1.4461962451e-01
1.0098577455e+03 1.4468350642e-01
1.0102904011e+03 1.4474655328e-01
1.0107221839e+03 1.4481051558e-01
1.0111906040e+03 1.4487780923e-01
1.0117050599e+03 1.4494977588e-01
1.0122426807e+03 1.4502311756e-01
1.0127866808e+03 1.4509799618e-01
1.0133327677e+03 1.4517347428e-01
1.0138565271e+03 1.4524680628e-01
1.0143445986e+03 1.4531499416e-01
1.0148269967e+03 1.4538347807e-01
1.0153136183e+03 1.4545273386e-01
1.0157926005e+03 1.4552149614e-01
1.0162582552e+03 1.4558716096e-01
1.0167185255e+03 1.4565140000e-01
1.0171894038e+03 1.4571594944e-01
1.0176930578e+03 1.4578558786e-01
1.0182263513e+03 1.4585872177e-01
1.0187491384e+03 1.4593000560e-01
1.0192336855e+03 1.4599451555e-01
1.0196897520e+03 1.4605556001e-01
1.0201234858e+03 1.4611364287e-01
1.0205353862e+03 1.4616946809e-01
1.0209255611e+03 1.4622144355e-01
1.0212853983e+03 1.4626952475e-01
1.0216303134e+03 1.4631577359e-01
1.0219770849e+03 1.4636412563e-01
1.0223413891e+03 1.4641577234e-01
1.0227250290e+03 1.4647155124e-01
1.0231487368e+03 1.4653301687e-01
1.0236281741e+03 1.4660321880e-01
1.0241589635e+03 1.4668035523e-01
1.0247270530e+03 1.4676338568e-01
1.0253092008e+03 1.4684793315e-01
1.0258849435e+03 1.4693178849e-01
1.0264532648e+03 1.4701350586e-01
1.0270152532e+03 1.4709427997e-01
1.0275751708e+03 1.4717390509e-01
1.0281130695e+03 1.4725052070e-01
1.0286135978e+03 1.4732077259e-01
1.0290759931e+03 1.4738571045e-01
1.0296983188e+03 1.4747225425e-01
1.0304031270e+03 1.4757121110e-01
1.0310816764e+03 1.4766629563e-01
1.0317659755e+03 1.4776223149e-01
1.0324773953e+03 1.4786064491e-01
1.0332031405e+03 1.4796107154e-01
1.0338936825e+03 1.4805619207e-01
1.0345240951e+03 1.4814386773e-01
1.0351352817e+03 1.4822912024e-01
1.0357665399e+03 1.4831868020e-01
1.0364070328e+03 1.4840962652e-01
1.0370362832e+03 1.4849916429e-01
1.0376493774e+03 1.4858500847e-01
1.0382498998e+03 1.4866870037e-01
1.0388430804e+03 1.4875009293e-01
1.0394472768e+03 1.4883272836e-01
1.0400663904e+03 1.4891624790e-01
1.0406723550e+03 1.4899809518e-01
1.0412281988e+03 1.4907240648e-01
1.0417320107e+03 1.4914031287e-01
1.0422195516e+03 1.4920598104e-01
1.0427199121e+03 1.4927432288e-01
1.0432377406e+03 1.4934487862e-01
1.0437541418e+03 1.4941627417e-01
1.0442735003e+03 1.4948837549e-01
1.0449503577e+03 1.4958337424e-01
1.0456736548e+03 1.4968460995e-01
1.0463173455e+03 1.4977573094e-01
1.0468890020e+03 1.4985711353e-01
1.0474082345e+03 1.4993285472e-01
1.0478853180e+03 1.5000311946e-01
1.0483390678e+03 1.5007069044e-01
1.0487968442e+03 1.5013765339e-01
1.0492710167e+03 1.5020684081e-01
1.0497528837e+03 1.5027655615e-01
1.0502857300e+03 1.5035372057e-01
1.0507747298e+03 1.5042336010e-01
1.0512462520e+03 1.5048965689e-01
1.0517940697e+03 1.5056512641e-01
1.0523360312e+03 1.5064036355e-01
1.0528484610e+03 1.5071118674e-01
1.0533352392e+03 1.5077880399e-01
1.0538018527e+03 1.5084298870e-01
1.0542586323e+03 1.5090647353e-01
1.0547052001e+03 1.5096811417e-01
1.0551249465e+03 1.5102629025e-01
1.0554996965e+03 1.5107752751e-01
1.0558242237e+03 1.5112295239e-01
1.0561161524e+03 1.5116457170e-01
1.0563900909e+03 1.5120528391e-01
1.0566331816e+03 1.5124148483e-01
1.0568057854e+03 1.5126062907e-01
1.0568091183e+03 1.5125971107e-01
1.0568361546e+03 1.5126490632e-01
1.0568448158e+03 1.5126983833e-01
1.0568568216e+03 1.5127192452e-01
1.0569132370e+03 1.5127461387e-01
1.0569761029e+03 1.5129022101e-01
1.0569999024e+03 1.5128713064e-01
1.0570022301e+03 1.5129545544e-01
1.0570941742e+03 1.5129980348e-01
1.0571355113e+03 1.5131807479e-01
1.0571476086e+03 1.5131370168e-01
1.0571797694e+03 1.5131190137e-01
1.0572315230e+03 1.5132170767e-01
1.0572488855e+03 1.5132539445e-01
1.0572830579e+03 1.5132877032e-01
1.0572905079e+03 1.5133100970e-01
1.0573000287e+03 1.5133130345e-01
1.0573427177e+03 1.5134979899e-01
1.0575509005e+03 1.5138256606e-01
1.0577777994e+03 1.5141866447e-01
1.0580275713e+03 1.5145791917e-01
1.0583075938e+03 1.5150161529e-01
1.0586413835e+03 1.5155078318e-01
1.0590361779e+03 1.5160735015e-01
1.0594875492e+03 1.5167044074e-01
1.0599818549e+03 1.5173941514e-01
1.0604950256e+03 1.5180954431e-01
1.0610037461e+03 1.5187900435e-01
1.0615235152e+03 1.5195014353e-01
1.0620817085e+03 1.5202822206e-01
1.0626580603e+03 1.5210845560e-01
1.0632278962e+03 1.5218777205e-01
1.0637844531e+03 1.5226429812e-01
1.0643251049e+03 1.5233881371e-01
1.0648432690e+03 1.5240929160e-01
1.0653881795e+03 1.5248416425e-01
1.0662762655e+03 1.5260671312e-01
1.0670906655e+03 1.5272060274e-01
1.0678384708e+03 1.5282491031e-01
1.0685369383e+03 1.5292229190e-01
1.0691906305e+03 1.5301207310e-01
1.0697986434e+03 1.5309534954e-01
1.0703780271e+03 1.5317358553e-01
1.0709515472e+03 1.5325114956e-01
1.0715300425e+03 1.5332885483e-01
1.0720980329e+03 1.5340623886e-01
1.0726555414e+03 1.5348263843e-01
1.0732049792e+03 1.5355932570e-01
1.0737399728e+03 1.5363397608e-01
1.0742425257e+03 1.5370492147e-01
1.0747059229e+03 1.5377006490e-01
1.0751506680e+03 1.5383325825e-01
1.0755878836e+03 1.5389498660e-01
1.0760133357e+03 1.5395631480e-01
1.0764212238e+03 1.5401599713e-01
1.0768376365e+03 1.5407836056e-01
1.0772871249e+03 1.5414459733e-01
1.0777396389e+03 1.5421116404e-01
1.0781625607e+03 1.5427324183e-01
1.0785495076e+03 1.5433132019e-01
1.0789262026e+03 1.5438698093e-01
1.0793106441e+03 1.5444282221e-01
1.0797076094e+03 1.5449834439e-01
1.0801192293e+03 1.5455557409e-01
1.0805384338e+03 1.5461302575e-01
1.0809531069e+03 1.5467059661e-01
1.0813462892e+03 1.5472494922e-01
1.0817036211e+03 1.5477477669e-01
1.0820429663e+03 1.5482158813e-01
1.0823859905e+03 1.5487008295e-01
1.0827357302e+03 1.5491974618e-01
1.0830623886e+03 1.5496659048e-01
1.0833528388e+03 1.5500677212e-01
1.0836194475e+03 1.5504321215e-01
1.0838744200e+03 1.5507700765e-01
1.0841228812e+03 1.5511053386e-01
1.0843815664e+03 1.5514556909e-01
1.0846649499e+03 1.5518550071e-01
1.0849997362e+03 1.5523270054e-01
1.0854985477e+03 1.5530300495e-01
1.0859773982e+03 1.5536941159e-01
1.0864415176e+03 1.5543346098e-01
1.0868881170e+03 1.5549397145e-01
1.0873250123e+03 1.5555364221e-01
1.0877685335e+03 1.5561390163e-01
1.0882135865e+03 1.5567536151e-01
1.0886390332e+03 1.5573434705e-01
1.0890376693e+03 1.5579137530e-01
1.0894194363e+03 1.5584689219e-01
1.0897947857e+03 1.5590324192e-01
1.0901607909e+03 1.5595842499e-01
1.0905193702e+03 1.5601304909e-01
1.0908695353e+03 1.5606529553e-01
1.0912152723e+03 1.5611685531e-01
1.0915674683e+03 1.5616863022e-01
1.0919298115e+03 1.5622228393e-01
1.0922882169e+03 1.5627434799e-01
1.0926420622e+03 1.5632585772e-01
1.0930104384e+03 1.5637912712e-01
1.0933961469e+03 1.5643607701e-01
1.0937870153e+03 1.5649327611e-01
1.0941758849e+03 1.5654990117e-01
1.0945702547e+03 1.5660527175e-01
1.0949698144e+03 1.5666042495e-01
1.0953550206e+03 1.5671218902e-01
1.0957106058e+03 1.5676073191e-01
1.0960479738e+03 1.5680736457e-01
1.0964052834e+03 1.5685817995e-01
1.0967968959e+03 1.5691330518e-01
1.0972119915e+03 1.5697183551e-01
1.0976281519e+03 1.5702942346e-01
1.0980247392e+03 1.5708442973e-01
1.0984103994e+03 1.5713696070e-01
1.0987797326e+03 1.5718734919e-01
1.0991229407e+03 1.5723335647e-01
1.0994451437e+03 1.5727735585e-01
1.0997743716e+03 1.5732238266e-01
1.1001280630e+03 1.5737163591e-01
1.1004861866e+03 1.5742105642e-01
1.1008294144e+03 1.5746931156e-01
1.1011637744e+03 1.5751614331e-01
1.1015057367e+03 1.5756446254e-01
1.1018546063e+03 1.5761265848e-01
1.1021878621e+03 1.5765904015e-01
1.1024915169e+03 1.5770111822e-01
1.1027682604e+03 1.5774088140e-01
1.1030365832e+03 1.5778008776e-01
1.1033107594e+03 1.5782179651e-01
1.1036053836e+03 1.5786643823e-01
1.1039172120e+03 1.5791402274e-01
1.1042397109e+03 1.5796230524e-01
1.1045549908e+03 1.5801012768e-01
1.1048587968e+03 1.5805576185e-01
1.1051581280e+03 1.5810091464e-01
1.1054793577e+03 1.5814765309e-01
1.1058312441e+03 1.5819828427e-01
1.1062005273e+03 1.5825021550e-01
1.1065612919e+03 1.5830149912e-01
1.1069097877e+03 1.5835075386e-01
1.1072457376e+03 1.5839891468e-01
1.1075695175e+03 1.5844473663e-01
1.1078714793e+03 1.5848791255e-01
1.1081367635e+03 1.5852479996e-01
1.1083661087e+03 1.5855621541e-01
1.1085822836e+03 1.5858454400e-01
1.1088022502e+03 1.5861433983e-01
1.1090369146e+03 1.5864661265e-01
1.1092815121e+03 1.5868134040e-01
1.1095423796e+03 1.5871737649e-01
1.1099077923e+03 1.5876759592e-01
1.1104490698e+03 1.5884106858e-01
1.1109781647e+03 1.5891373393e-01
1.1114791598e+03 1.5898239515e-01
1.1119517282e+03 1.5904771821e-01
1.1124043932e+03 1.5910926933e-01
1.1128413058e+03 1.5916907664e-01
1.1132575425e+03 1.5922601157e-01
1.1136565850e+03 1.5928161286e-01
1.1140553180e+03 1.5933636148e-01
1.1144544357e+03 1.5939125611e-01
1.1148607698e+03 1.5944674583e-01
1.1152963631e+03 1.5950758750e-01
1.1157526049e+03 1.5957133165e-01
1.1162021433e+03 1.5963517584e-01
1.1166268728e+03 1.5969553760e-01
1.1170338572e+03 1.5975441345e-01
1.1174345048e+03 1.5981184301e-01
1.1178338411e+03 1.5986939384e-01
1.1182484530e+03 1.5992823407e-01
1.1186600633e+03 1.5998722805e-01
1.1190552623e+03 1.6004375780e-01
1.1194340732e+03 1.6009915166e-01
1.1198030784e+03 1.6015266186e-01
1.1201679209e+03 1.6020533890e-01
1.1205295645e+03 1.6025553613e-01
1.1208867879e+03 1.6030438081e-01
1.1212296079e+03 1.6034991723e-01
1.1215623069e+03 1.6039424155e-01
1.1219129479e+03 1.6044018072e-01
1.1222773475e+03 1.6048847355e-01
1.1226402858e+03 1.6053649489e-01
1.1229966031e+03 1.6058522514e-01
1.1233588187e+03 1.6063483407e-01
1.1237317080e+03 1.6068617356e-01
1.1241017123e+03 1.6073580373e-01
1.1244544329e+03 1.6078369555e-01
1.1247861658e+03 1.6082903023e-01
1.1251006180e+03 1.6087336687e-01
1.1254219591e+03 1.6091815172e-01
1.1257488459e+03 1.6096374704e-01
1.1260782642e+03 1.6100854222e-01
1.1264700983e+03 1.6106227928e-01
1.1270240284e+03 1.6113798660e-01
1.1275571188e+03 1.6121208259e-01
