# Outer-scaled velocity profile (U/u_inf vs y/delta)
# Columns: y_star    U_parallel_star
8.6893731191e-04 2.0258575931e-02
2.5932927506e-03 6.0721934848e-02
4.3191674828e-03 1.0104631115e-01
6.0469705566e-03 1.4102659406e-01
7.7771537301e-03 1.8035314955e-01
9.5102048099e-03 2.1865950578e-01
1.1246640956e-02 2.5558537034e-01
1.2987002481e-02 2.9081795324e-01
1.4731847475e-02 3.2412665294e-01
1.6481747414e-02 3.5536482942e-01
1.8237283752e-02 3.8447239769e-01
1.9999045423e-02 4.1145531547e-01
2.1767627101e-02 4.3637725921e-01
2.3543628059e-02 4.5933573046e-01
2.5327651487e-02 4.8045554393e-01
2.7120304126e-02 4.9987002874e-01
2.8922196123e-02 5.1772006020e-01
3.0733941033e-02 5.3414094967e-01
3.2556155904e-02 5.4926541432e-01
3.4389461423e-02 5.6321444854e-01
3.6234482093e-02 5.7610263796e-01
3.8091846424e-02 5.8803167510e-01
3.9962187139e-02 5.9909651257e-01
4.1846141386e-02 6.0938020888e-01
4.3744350952e-02 6.1895986288e-01
4.5657462482e-02 6.2790218315e-01
4.7586127696e-02 6.3626901950e-01
4.9531003613e-02 6.4411374616e-01
5.1492752777e-02 6.5148642765e-01
5.3472043476e-02 6.5843062610e-01
5.5469549977e-02 6.6498762487e-01
5.7485952750e-02 6.7119316965e-01
5.9521938705e-02 6.7708074711e-01
6.1578201420e-02 6.8267853281e-01
6.3655441382e-02 6.8801231133e-01
6.5754366226e-02 6.9310322182e-01
6.7875690970e-02 6.9797087788e-01
7.0020138267e-02 7.0263192585e-01
7.2188438644e-02 7.0710288425e-01
7.4381330755e-02 7.1139862706e-01
7.6599561631e-02 7.1553427621e-01
7.8843886935e-02 7.1952333209e-01
8.1115071221e-02 7.2337907628e-01
8.3413888190e-02 7.2711320110e-01
8.5741120958e-02 7.3073746740e-01
8.8097562320e-02 7.3426269549e-01
9.0484015023e-02 7.3769976171e-01
9.2901292036e-02 7.4105786100e-01
9.5350216830e-02 7.4434486073e-01
9.7831623656e-02 7.4756628689e-01
1.0034635783e-01 7.5072672123e-01
1.0289527602e-01 7.5382956047e-01
1.0547924655e-01 7.5687813443e-01
1.0809914967e-01 7.5987529049e-01
1.1075587787e-01 7.6282430548e-01
1.1345033621e-01 7.6572840855e-01
1.1618344256e-01 7.6859140060e-01
1.1895612801e-01 7.7141710826e-01
1.2176933708e-01 7.7420987608e-01
1.2462402812e-01 7.7697381639e-01
1.2752117363e-01 7.7971268594e-01
1.3046176053e-01 7.8242912814e-01
1.3344679057e-01 7.8512531817e-01
1.3647728064e-01 7.8780321036e-01
1.3955426309e-01 7.9046520908e-01
1.4267878614e-01 7.9311357205e-01
1.4585191419e-01 7.9575033558e-01
1.4907472819e-01 7.9837727485e-01
1.5234832603e-01 8.0099673586e-01
1.5567382289e-01 8.0361134731e-01
1.5905235164e-01 8.0622360810e-01
1.6248506321e-01 8.0883489530e-01
1.6597312699e-01 8.1144556298e-01
1.6951773122e-01 8.1405576592e-01
1.7312008341e-01 8.1666686278e-01
1.7678141074e-01 8.1928109336e-01
1.8050296047e-01 8.2190065686e-01
1.8428600040e-01 8.2452686800e-01
1.8813181924e-01 8.2716048380e-01
1.9204172712e-01 8.2980246486e-01
1.9601705600e-01 8.3245464934e-01
2.0005916010e-01 8.3511839032e-01
2.0416941640e-01 8.3779273448e-01
2.0834922512e-01 8.4047424591e-01
2.1260001015e-01 8.4315979593e-01
2.1692321956e-01 8.4584888985e-01
2.2132032609e-01 8.4854331978e-01
2.2579282767e-01 8.5124539858e-01
2.3034224789e-01 8.5395697075e-01
2.3497013657e-01 8.5667920671e-01
2.3967807025e-01 8.5941374945e-01
2.4446765272e-01 8.6216260723e-01
2.4934051562e-01 8.6492676258e-01
2.5429831893e-01 8.6770637360e-01
2.5934275157e-01 8.7050258374e-01
2.6447553199e-01 8.7331690175e-01
2.6969840872e-01 8.7615011997e-01
2.7501316098e-01 8.7900344047e-01
2.8042159931e-01 8.8187858406e-01
2.8592556614e-01 8.8477725372e-01
2.9152693645e-01 8.8769973901e-01
2.9722761842e-01 8.9064296304e-01
3.0302955402e-01 8.9360343685e-01
3.0893471977e-01 8.9657967628e-01
3.1494512730e-01 8.9957343357e-01
3.2106282412e-01 9.0259005374e-01
3.2728989431e-01 9.0563243187e-01
3.3362845915e-01 9.0869778277e-01
3.4008067797e-01 9.1178181995e-01
3.4664874877e-01 9.1488228404e-01
3.5333490902e-01 9.1799891784e-01
3.6014143645e-01 9.2113351251e-01
3.6707064976e-01 9.2428938181e-01
3.7412490946e-01 9.2746807352e-01
3.8130661867e-01 9.3066759465e-01
3.8861822389e-01 9.3388531933e-01
3.9606221591e-01 9.3712016411e-01
4.0364113059e-01 9.4037350744e-01
4.1135754978e-01 9.4364639455e-01
4.1921410214e-01 9.4694033200e-01
4.2721346411e-01 9.5025537702e-01
4.3535836073e-01 9.5358795570e-01
4.4365156665e-01 9.5693863283e-01
4.5209590705e-01 9.6030821198e-01
4.6069425856e-01 9.6369732071e-01
4.6944955031e-01 9.6711001050e-01
4.7836476488e-01 9.7054964881e-01
4.8744293933e-01 9.7401733986e-01
4.9668716622e-01 9.7750763620e-01
5.0610059471e-01 9.8101317048e-01
5.1568643157e-01 9.8453583435e-01
5.2544794231e-01 9.8808058240e-01
5.3538845230e-01 9.9164300735e-01
5.4551134788e-01 9.9521645848e-01
5.5582007750e-01 9.9879440354e-01
5.6631815295e-01 1.0023786922e+00
5.7700915051e-01 1.0059756618e+00
5.8789671216e-01 1.0095882217e+00
5.9898454688e-01 1.0132225670e+00
6.1027643184e-01 1.0168843207e+00
6.2177621374e-01 1.0205720015e+00
6.3348781011e-01 1.0242772688e+00
6.4541521061e-01 1.0279882071e+00
6.5756247845e-01 1.0317001082e+00
6.6993375170e-01 1.0354049872e+00
6.8253324478e-01 1.0390898806e+00
6.9536524982e-01 1.0427585890e+00
7.0843413819e-01 1.0464144740e+00
7.2174436193e-01 1.0500540464e+00
7.3530045529e-01 1.0536751076e+00
7.4910703630e-01 1.0572813569e+00
7.6316880825e-01 1.0608670019e+00
7.7749056133e-01 1.0644207912e+00
7.9207717415e-01 1.0679427860e+00
8.0693361525e-01 1.0714275220e+00
8.2206494440e-01 1.0748486509e+00
8.3747631361e-01 1.0781901596e+00
8.5317296744e-01 1.0814440792e+00
8.6916024198e-01 1.0845938414e+00
8.8544356159e-01 1.0876223615e+00
9.0202843160e-01 1.0905168182e+00
9.1892042447e-01 1.0932781324e+00
9.3612515565e-01 1.0958910860e+00
9.5364824364e-01 1.0983415131e+00
9.7149524740e-01 1.1006235341e+00
9.8967157219e-01 1.1027186974e+00
1.0081823343e+00 1.1046181531e+00
1.0270321744e+00 1.1063217160e+00
1.0462250117e+00 1.1078301801e+00
1.0657637353e+00 1.1091453428e+00
1.0856498340e+00 1.1102726662e+00
1.1058829803e+00 1.1112247519e+00
1.1264605892e+00 1.1120133485e+00
1.1473773915e+00 1.1126548017e+00
1.1686250641e+00 1.1131717045e+00
1.1901919705e+00 1.1135826700e+00
1.2120630588e+00 1.1139052043e+00
1.2342199576e+00 1.1141525575e+00
1.2566412879e+00 1.1143354686e+00
1.2793031900e+00 1.1144687658e+00
1.3021800322e+00 1.1145654436e+00
1.3252452481e+00 1.1146329228e+00
1.3484722306e+00 1.1146776863e+00
1.3718352005e+00 1.1147082465e+00
1.3953099786e+00 1.1147299220e+00
1.4188745971e+00 1.1147440614e+00
1.4425097158e+00 1.1147522183e+00
1.4661988304e+00 1.1147576930e+00
1.4899282857e+00 1.1147623081e+00
1.5136871259e+00 1.1147655266e+00
1.5374668260e+00 1.1147670701e+00
1.5612609521e+00 1.1147678959e+00
1.5850647935e+00 1.1147687248e+00
1.6088750050e+00 1.1147695160e+00
1.6326892814e+00 1.1147701999e+00
1.6565060818e+00 1.1147709261e+00
1.6803244068e+00 1.1147717089e+00
1.7041436275e+00 1.1147725841e+00
1.7279633600e+00 1.1147734770e+00
1.7517833767e+00 1.1147743676e+00
1.7756035470e+00 1.1147752551e+00
1.7994237977e+00 1.1147761736e+00
1.8232440896e+00 1.1147770984e+00
1.8470644019e+00 1.1147780456e+00
1.8708847239e+00 1.1147790008e+00
1.8947050506e+00 1.1147799779e+00
1.9185253793e+00 1.1147809592e+00
1.9423457090e+00 1.1147819509e+00
1.9661660390e+00 1.1147829288e+00
1.9899863692e+00 1.1147838945e+00
2.0138066995e+00 1.1147848314e+00
2.0376270298e+00 1.1147857437e+00
2.0614473601e+00 1.1147866298e+00
2.0852676904e+00 1.1147874994e+00
2.1090880208e+00 1.1147883565e+00
2.1329083511e+00 1.1147892077e+00
2.1567286814e+00 1.1147900506e+00
2.1805490117e+00 1.1147908853e+00
2.2043693420e+00 1.1147917105e+00
2.2281896724e+00 1.1147925237e+00
2.2520100027e+00 1.1147933292e+00
2.2758303330e+00 1.1147941204e+00
2.2996506633e+00 1.1147949079e+00
2.3234709936e+00 1.1147956871e+00
2.3472913240e+00 1.1147964753e+00
2.3711116543e+00 1.1147972665e+00
2.3949319846e+00 1.1147980742e+00
2.4187523149e+00 1.1147988867e+00
2.4425726452e+00 1.1147997153e+00
2.4663929755e+00 1.1148005449e+00
2.4902133059e+00 1.1148013853e+00
2.5140336362e+00 1.1148022186e+00
2.5378539665e+00 1.1148030546e+00
2.5616742968e+00 1.1148038786e+00
2.5854946271e+00 1.1148047046e+00
2.6093149575e+00 1.1148055242e+00
2.6331352878e+00 1.1148063543e+00
2.6569556181e+00 1.1148071861e+00
2.6807759484e+00 1.1148080302e+00
2.7045962787e+00 1.1148088705e+00
2.7284166091e+00 1.1148097111e+00
2.7522369394e+00 1.1148105325e+00
2.7760572697e+00 1.1148113395e+00
2.7998776000e+00 1.1148121159e+00
2.8236979303e+00 1.1148128704e+00
2.8475182607e+00 1.1148135919e+00
2.8713385910e+00 1.1148142927e+00
2.8951589213e+00 1.1148149649e+00
2.9189792516e+00 1.1148156209e+00
2.9427995819e+00 1.1148162533e+00
2.9666199123e+00 1.1148168737e+00
2.9904402426e+00 1.1148174757e+00
3.0142605729e+00 1.1148180707e+00
3.0380809032e+00 1.1148186550e+00
3.0619012335e+00 1.1148192412e+00
3.0857215639e+00 1.1148198300e+00
3.1095418942e+00 1.1148204328e+00
3.1333622245e+00 1.1148210493e+00
3.1571825548e+00 1.1148216864e+00
3.1810028851e+00 1.1148223430e+00
3.2048232155e+00 1.1148230248e+00
3.2286435458e+00 1.1148237308e+00
3.2524638761e+00 1.1148244625e+00
3.2762842064e+00 1.1148252157e+00
3.3001045367e+00 1.1148259911e+00
3.3239248671e+00 1.1148267888e+00
3.3477451974e+00 1.1148276161e+00
3.3715655277e+00 1.1148284769e+00
3.3953858580e+00 1.1148293763e+00
3.4192061883e+00 1.1148303079e+00
3.4430265187e+00 1.1148312636e+00
3.4668468490e+00 1.1148322240e+00
3.4906671793e+00 1.1148331760e+00
3.5144875096e+00 1.1148341008e+00
3.5383078399e+00 1.1148349940e+00
3.5621281703e+00 1.1148358430e+00
3.5859485006e+00 1.1148366521e+00
3.6097688309e+00 1.1148374119e+00
3.6335891612e+00 1.1148381348e+00
3.6574094915e+00 1.1148388150e+00
3.6812298219e+00 1.1148394738e+00
3.7050501522e+00 1.1148401062e+00
3.7288704825e+00 1.1148407367e+00
3.7526908128e+00 1.1148413531e+00
3.7765111431e+00 1.1148419783e+00
3.8003314734e+00 1.1148425918e+00
3.8241518038e+00 1.1148432165e+00
3.8479721341e+00 1.1148438285e+00
3.8717924644e+00 1.1148444513e+00
3.8956127947e+00 1.1148450583e+00
3.9194331250e+00 1.1148456696e+00
3.9432534554e+00 1.1148462560e+00
3.9670737857e+00 1.1148468357e+00
3.9908941160e+00 1.1148473847e+00
4.0147144463e+00 1.1148479254e+00
4.0385347766e+00 1.1148484436e+00
4.0623551070e+00 1.1148489656e+00
4.0861754373e+00 1.1148494850e+00
4.1099957676e+00 1.1148500302e+00
4.1338160979e+00 1.1148505995e+00
4.1576364282e+00 1.1148512198e+00
4.1814567586e+00 1.1148518873e+00
4.2052770889e+00 1.1148526177e+00
4.2290974192e+00 1.1148533956e+00
4.2529177495e+00 1.1148542197e+00
4.2767380798e+00 1.1148550641e+00
4.3005584102e+00 1.1148559186e+00
4.3243787405e+00 1.1148567607e+00
4.3481990708e+00 1.1148575847e+00
4.3720194011e+00 1.1148583789e+00
4.3958397314e+00 1.1148591443e+00
4.4196600618e+00 1.1148598743e+00
4.4434803921e+00 1.1148605722e+00
4.4673007224e+00 1.1148612315e+00
4.4911210527e+00 1.1148618610e+00
4.5149413830e+00 1.1148624554e+00
4.5387617134e+00 1.1148630345e+00
4.5625820437e+00 1.1148635949e+00
4.5864023740e+00 1.1148641702e+00
4.6102227043e+00 1.1148647563e+00
4.6340430346e+00 1.1148653946e+00
4.6578633650e+00 1.1148660693e+00
4.6816836953e+00 1.1148668186e+00
4.7055040256e+00 1.1148676080e+00
4.7293243559e+00 1.1148684713e+00
4.7531446862e+00 1.1148693629e+00
4.7769650166e+00 1.1148703213e+00
4.8007853469e+00 1.1148712977e+00
4.8246056772e+00 1.1148723354e+00
4.8484260075e+00 1.1148733784e+00
4.8722463378e+00 1.1148744685e+00
4.8960666682e+00 1.1148755437e+00
4.9198869985e+00 1.1148766483e+00
4.9437073288e+00 1.1148777207e+00
4.9675276591e+00 1.1148788101e+00
4.9913479894e+00 1.1148798554e+00
5.0151683198e+00 1.1148809098e+00
5.0389886501e+00 1.1148819135e+00
5.0628089804e+00 1.1148829261e+00
5.0866293107e+00 1.1148838900e+00
5.1104496410e+00 1.1148848691e+00
5.1342699713e+00 1.1148858052e+00
5.1580903017e+00 1.1148867636e+00
5.1819106320e+00 1.1148876859e+00
5.2057309623e+00 1.1148886385e+00
5.2295512926e+00 1.1148895630e+00
5.2533716229e+00 1.1148905240e+00
5.2771919533e+00 1.1148914618e+00
5.3010122836e+00 1.1148924362e+00
5.3248326139e+00 1.1148933840e+00
5.3486529442e+00 1.1148943594e+00
5.3724732745e+00 1.1148952977e+00
5.3962936049e+00 1.1148962540e+00
5.4201139352e+00 1.1148971687e+00
5.4439342655e+00 1.1148981030e+00
5.4677545958e+00 1.1148990009e+00
5.4915749261e+00 1.1148999278e+00
5.5153952565e+00 1.1149008265e+00
5.5392155868e+00 1.1149017679e+00
5.5630359171e+00 1.1149026949e+00
5.5868562474e+00 1.1149036886e+00
5.6106765777e+00 1.1149046898e+00
5.6344969081e+00 1.1149057830e+00
5.6583172384e+00 1.1149068926e+00
5.6821375687e+00 1.1149080944e+00
5.7059578990e+00 1.1149092919e+00
5.7297782293e+00 1.1149105548e+00
5.7535985597e+00 1.1149117772e+00
5.7774188900e+00 1.1149130295e+00
5.8012392203e+00 1.1149142072e+00
5.8250595506e+00 1.1149153860e+00
5.8488798809e+00 1.1149164754e+00
5.8727002113e+00 1.1149175587e+00
5.8965205416e+00 1.1149185684e+00
5.9203408719e+00 1.1149195851e+00
5.9441612022e+00 1.1149205657e+00
5.9679815325e+00 1.1149215651e+00
5.9918018629e+00 1.1149225693e+00
6.0156221932e+00 1.1149235798e+00
6.0394425235e+00 1.1149246180e+00
6.0632628538e+00 1.1149255981e+00
6.0870831841e+00 1.1149265636e+00
6.1109035145e+00 1.1149272941e+00
6.1347238448e+00 1.1149278125e+00
