# Inner-scaled velocity profile
# Columns: y_plus    U_parallel_plus
3.9100267708e-01 3.8931948733e-01
1.1669246953e+00 1.1669246953e+00
1.9435303622e+00 1.9418590027e+00
2.7210037404e+00 2.7101806902e+00
3.4995481111e+00 3.4659393613e+00
4.2793829765e+00 4.2020923375e+00
5.0607410474e+00 4.9117156946e+00
5.8438654524e+00 5.5887983859e+00
6.6290073199e+00 6.2289088227e+00
7.4164238012e+00 6.8292289487e+00
8.2063765381e+00 7.3886040791e+00
8.9991305383e+00 7.9071487071e+00
9.7949533913e+00 8.3860865352e+00
1.0594114757e+01 8.8272913016e+00
1.1396886058e+01 9.2331616342e+00
1.2203540314e+01 9.6062597877e+00
1.3014352078e+01 9.9492930354e+00
1.3829597436e+01 1.0264861725e+01
1.4649554046e+01 1.0555516352e+01
1.5474501205e+01 1.0823582127e+01
1.6304719923e+01 1.1071261101e+01
1.7140493017e+01 1.1300507551e+01
1.7982105198e+01 1.1513146232e+01
1.8829843169e+01 1.1710773320e+01
1.9683995721e+01 1.1894870465e+01
2.0544853828e+01 1.2066719639e+01
2.1412710751e+01 1.2227509442e+01
2.2287862134e+01 1.2378265594e+01
2.3170606107e+01 1.2519950212e+01
2.4061243385e+01 1.2653400450e+01
2.4960077373e+01 1.2779409672e+01
2.5867414268e+01 1.2898664822e+01
2.6783563163e+01 1.3011809431e+01
2.7708836155e+01 1.3119384961e+01
2.8643548447e+01 1.3221886930e+01
2.9588018458e+01 1.3319721579e+01
3.0542567932e+01 1.3413265832e+01
3.1507522046e+01 1.3502839592e+01
3.2483209521e+01 1.3588760302e+01
3.3469962736e+01 1.3671313804e+01
3.4468117838e+01 1.3750790704e+01
3.5478014859e+01 1.3827450445e+01
3.6499997830e+01 1.3901548267e+01
3.7534414901e+01 1.3973308867e+01
3.8581618456e+01 1.4042958259e+01
3.9641965236e+01 1.4110704383e+01
4.0715816460e+01 1.4176756254e+01
4.1803537945e+01 1.4241290578e+01
4.2905500235e+01 1.4304458545e+01
4.4022078725e+01 1.4366366350e+01
4.5153653789e+01 1.4427102045e+01
4.6300610910e+01 1.4486730904e+01
4.7463340810e+01 1.4545316920e+01
4.8642239585e+01 1.4602914812e+01
4.9837708839e+01 1.4659587552e+01
5.1050155822e+01 1.4715397196e+01
5.2279993564e+01 1.4770416789e+01
5.3527641025e+01 1.4824719868e+01
5.4793523226e+01 1.4878389926e+01
5.6078071405e+01 1.4931505990e+01
5.7381723156e+01 1.4984140257e+01
5.8704922581e+01 1.5036343526e+01
6.0048120441e+01 1.5088157598e+01
6.1411774312e+01 1.5139620032e+01
6.2796348734e+01 1.5190777032e+01
6.4202315379e+01 1.5241671987e+01
6.5630153203e+01 1.5292344030e+01
6.7080348613e+01 1.5342827275e+01
6.8553395635e+01 1.5393166806e+01
7.0049796075e+01 1.5443413141e+01
7.1570059699e+01 1.5493614302e+01
7.3114704399e+01 1.5543796753e+01
7.4684256376e+01 1.5593967298e+01
7.6279250313e+01 1.5644128912e+01
7.7900229560e+01 1.5694307706e+01
7.9547746322e+01 1.5744546721e+01
8.1222361842e+01 1.5794888222e+01
8.2924646595e+01 1.5845357474e+01
8.4655180482e+01 1.5895969025e+01
8.6414553026e+01 1.5946741336e+01
8.8203363577e+01 1.5997709731e+01
9.0022221510e+01 1.6048900213e+01
9.1871746439e+01 1.6100294462e+01
9.3752568424e+01 1.6151826449e+01
9.5665328185e+01 1.6203436047e+01
9.7610677324e+01 1.6255113749e+01
9.9589278544e+01 1.6306893997e+01
1.0160180588e+02 1.6358821237e+01
1.0364894491e+02 1.6410930916e+01
1.0573139302e+02 1.6463245526e+01
1.0784985962e+02 1.6515796642e+01
1.1000506638e+02 1.6568622858e+01
1.1219774750e+02 1.6621743055e+01
1.1442864993e+02 1.6675160272e+01
1.1669853366e+02 1.6728896482e+01
1.1900817195e+02 1.6782980681e+01
1.2135835159e+02 1.6837428094e+01
1.2374987321e+02 1.6892261824e+01
1.2618355149e+02 1.6947514939e+01
1.2866021550e+02 1.7003220167e+01
1.3118070893e+02 1.7059383072e+01
1.3374589042e+02 1.7115944524e+01
1.3635663383e+02 1.7172837474e+01
1.3901382852e+02 1.7230033400e+01
1.4171837970e+02 1.7287565975e+01
1.4447120871e+02 1.7345537919e+01
1.4727325332e+02 1.7404004866e+01
1.5012546808e+02 1.7462913293e+01
1.5302882462e+02 1.7522180824e+01
1.5598431200e+02 1.7581764039e+01
1.5899293705e+02 1.7641657996e+01
1.6205572468e+02 1.7701897116e+01
1.6517371825e+02 1.7762545082e+01
1.6834797995e+02 1.7823631638e+01
1.7157959112e+02 1.7885118483e+01
1.7486965264e+02 1.7946955155e+01
1.7821928531e+02 1.8009120834e+01
1.8162963021e+02 1.8071642008e+01
1.8510184912e+02 1.8134538765e+01
1.8863712487e+02 1.8197840058e+01
1.9223666179e+02 1.8261546985e+01
1.9590168612e+02 1.8325590866e+01
1.9963344636e+02 1.8389982554e+01
2.0343321380e+02 1.8454737492e+01
2.0730228285e+02 1.8519867740e+01
2.1124197156e+02 1.8585451157e+01
2.1525362201e+02 1.8651552458e+01
2.1933860083e+02 1.8718192863e+01
2.2349829959e+02 1.8785267685e+01
2.2773413535e+02 1.8852635343e+01
2.3204755109e+02 1.8920332189e+01
2.3644001621e+02 1.8988453438e+01
2.4091302705e+02 1.9056914393e+01
2.4546810739e+02 1.9125587244e+01
2.5010680897e+02 1.9194346457e+01
2.5483071201e+02 1.9263227578e+01
2.5964142574e+02 1.9332352394e+01
2.6454058900e+02 1.9401776819e+01
2.6952987074e+02 1.9471619906e+01
2.7461097059e+02 1.9541989711e+01
2.7978561950e+02 1.9612857772e+01
2.8505558025e+02 1.9684063803e+01
2.9042264812e+02 1.9755378814e+01
2.9588865145e+02 1.9826712331e+01
3.0145545230e+02 1.9897910898e+01
3.0712494704e+02 1.9968725391e+01
3.1289906706e+02 2.0039228851e+01
3.1877977936e+02 2.0109485877e+01
3.2476908727e+02 2.0179429414e+01
3.3086903110e+02 2.0249017212e+01
3.3708168886e+02 2.0318320361e+01
3.4340917693e+02 2.0387227548e+01
3.4985365079e+02 2.0455522548e+01
3.5641730571e+02 2.0523206536e+01
3.6310237742e+02 2.0590174501e+01
3.6991114271e+02 2.0655920099e+01
3.7684591986e+02 2.0720135592e+01
3.8390906882e+02 2.0782667840e+01
3.9110299071e+02 2.0843198442e+01
3.9843012636e+02 2.0901399074e+01
4.0589295306e+02 2.0957023339e+01
4.1349397829e+02 2.1010088935e+01
4.2123572889e+02 2.1060303410e+01
4.2912073304e+02 2.1107394531e+01
4.3715149217e+02 2.1151249302e+01
4.4533043852e+02 2.1191513135e+01
4.5365987429e+02 2.1228015953e+01
4.6214188770e+02 2.1260754199e+01
4.7077824235e+02 2.1289743131e+01
4.7957023817e+02 2.1315017290e+01
4.8851854519e+02 2.1336681643e+01
4.9762301594e+02 2.1354978365e+01
5.0688248733e+02 2.1370133233e+01
5.1629458829e+02 2.1382460369e+01
5.2585557360e+02 2.1392393957e+01
5.3556020708e+02 2.1400291691e+01
5.4540171575e+02 2.1406489999e+01
5.5537183282e+02 2.1411243514e+01
5.6546093828e+02 2.1414758610e+01
5.7565829575e+02 2.1417320251e+01
5.8595237151e+02 2.1419178158e+01
5.9633121136e+02 2.1420474941e+01
6.0678284256e+02 2.1421335184e+01
6.1729566514e+02 2.1421922476e+01
6.2785879892e+02 2.1422339024e+01
6.3846235889e+02 2.1422610748e+01
6.4909764242e+02 2.1422767504e+01
6.5975722295e+02 2.1422872714e+01
6.7043495588e+02 2.1422961406e+01
6.8112591136e+02 2.1423023256e+01
6.9182625336e+02 2.1423052919e+01
7.0253308669e+02 2.1423068789e+01
7.1324429176e+02 2.1423084718e+01
7.2395836319e+02 2.1423099922e+01
7.3467426374e+02 2.1423113066e+01
7.4539130004e+02 2.1423127021e+01
7.5610902239e+02 2.1423142065e+01
7.6682714778e+02 2.1423158883e+01
7.7754550345e+02 2.1423176043e+01
7.8826398703e+02 2.1423193159e+01
7.9898253968e+02 2.1423210214e+01
8.0970112858e+02 2.1423227865e+01
8.2041973597e+02 2.1423245638e+01
8.3113835253e+02 2.1423263841e+01
8.4185697350e+02 2.1423282196e+01
8.5257559653e+02 2.1423300975e+01
8.6329422051e+02 2.1423319833e+01
8.7401284489e+02 2.1423338891e+01
8.8473146946e+02 2.1423357683e+01
8.9545009410e+02 2.1423376242e+01
9.0616871877e+02 2.1423394246e+01
9.1688734345e+02 2.1423411778e+01
9.2760596814e+02 2.1423428807e+01
9.3832459282e+02 2.1423445519e+01
9.4904321751e+02 2.1423461990e+01
9.5976184220e+02 2.1423478348e+01
9.7048046689e+02 2.1423494546e+01
9.8119909158e+02 2.1423510588e+01
9.9191771626e+02 2.1423526445e+01
1.0026363410e+03 2.1423542073e+01
1.0133549656e+03 2.1423557553e+01
1.0240735903e+03 2.1423572757e+01
1.0347922150e+03 2.1423587891e+01
1.0455108397e+03 2.1423602867e+01
1.0562294644e+03 2.1423618014e+01
1.0669480891e+03 2.1423633219e+01
1.0776667138e+03 2.1423648741e+01
1.0883853385e+03 2.1423664356e+01
1.0991039631e+03 2.1423680278e+01
1.1098225878e+03 2.1423696221e+01
1.1205412125e+03 2.1423712371e+01
1.1312598372e+03 2.1423728386e+01
1.1419784619e+03 2.1423744451e+01
1.1526970866e+03 2.1423760287e+01
1.1634157113e+03 2.1423776159e+01
1.1741343360e+03 2.1423791912e+01
1.1848529607e+03 2.1423807863e+01
1.1955715853e+03 2.1423823848e+01
1.2062902100e+03 2.1423840071e+01
1.2170088347e+03 2.1423856219e+01
1.2277274594e+03 2.1423872373e+01
1.2384460841e+03 2.1423888157e+01
1.2491647088e+03 2.1423903667e+01
1.2598833335e+03 2.1423918587e+01
1.2706019582e+03 2.1423933087e+01
1.2813205828e+03 2.1423946953e+01
1.2920392075e+03 2.1423960419e+01
1.3027578322e+03 2.1423973338e+01
1.3134764569e+03 2.1423985945e+01
1.3241950816e+03 2.1423998098e+01
1.3349137063e+03 2.1424010020e+01
1.3456323310e+03 2.1424021589e+01
1.3563509557e+03 2.1424033023e+01
1.3670695803e+03 2.1424044252e+01
1.3777882050e+03 2.1424055518e+01
1.3885068297e+03 2.1424066833e+01
1.3992254544e+03 2.1424078417e+01
1.4099440791e+03 2.1424090265e+01
1.4206627038e+03 2.1424102508e+01
1.4313813285e+03 2.1424115126e+01
1.4420999532e+03 2.1424128229e+01
1.4528185779e+03 2.1424141796e+01
1.4635372025e+03 2.1424155858e+01
1.4742558272e+03 2.1424170332e+01
1.4849744519e+03 2.1424185234e+01
1.4956930766e+03 2.1424200563e+01
1.5064117013e+03 2.1424216463e+01
1.5171303260e+03 2.1424233004e+01
1.5278489507e+03 2.1424250289e+01
1.5385675754e+03 2.1424268192e+01
1.5492862000e+03 2.1424286559e+01
1.5600048247e+03 2.1424305014e+01
1.5707234494e+03 2.1424323310e+01
1.5814420741e+03 2.1424341082e+01
1.5921606988e+03 2.1424358247e+01
1.6028793235e+03 2.1424374563e+01
1.6135979482e+03 2.1424390112e+01
1.6243165729e+03 2.1424404714e+01
1.6350351976e+03 2.1424418605e+01
1.6457538222e+03 2.1424431677e+01
1.6564724469e+03 2.1424444339e+01
1.6671910716e+03 2.1424456490e+01
1.6779096963e+03 2.1424468607e+01
1.6886283210e+03 2.1424480454e+01
1.6993469457e+03 2.1424492469e+01
1.7100655704e+03 2.1424504259e+01
1.7207841951e+03 2.1424516263e+01
1.7315028197e+03 2.1424528024e+01
1.7422214444e+03 2.1424539994e+01
1.7529400691e+03 2.1424551658e+01
1.7636586938e+03 2.1424563405e+01
1.7743773185e+03 2.1424574674e+01
1.7850959432e+03 2.1424585815e+01
1.7958145679e+03 2.1424596366e+01
1.8065331926e+03 2.1424606757e+01
1.8172518173e+03 2.1424616714e+01
1.8279704419e+03 2.1424626746e+01
1.8386890666e+03 2.1424636728e+01
1.8494076913e+03 2.1424647205e+01
1.8601263160e+03 2.1424658146e+01
1.8708449407e+03 2.1424670066e+01
1.8815635654e+03 2.1424682894e+01
1.8922821901e+03 2.1424696931e+01
1.9030008148e+03 2.1424711881e+01
1.9137194394e+03 2.1424727717e+01
1.9244380641e+03 2.1424743944e+01
1.9351566888e+03 2.1424760367e+01
1.9458753135e+03 2.1424776549e+01
1.9565939382e+03 2.1424792384e+01
1.9673125629e+03 2.1424807647e+01
1.9780311876e+03 2.1424822357e+01
1.9887498123e+03 2.1424836385e+01
1.9994684369e+03 2.1424849798e+01
2.0101870616e+03 2.1424862468e+01
2.0209056863e+03 2.1424874565e+01
2.0316243110e+03 2.1424885988e+01
2.0423429357e+03 2.1424897115e+01
2.0530615604e+03 2.1424907886e+01
2.0637801851e+03 2.1424918941e+01
2.0744988098e+03 2.1424930204e+01
2.0852174345e+03 2.1424942470e+01
2.0959360591e+03 2.1424955438e+01
2.1066546838e+03 2.1424969837e+01
2.1173733085e+03 2.1424985007e+01
2.1280919332e+03 2.1425001598e+01
2.1388105579e+03 2.1425018731e+01
2.1495291826e+03 2.1425037149e+01
2.1602478073e+03 2.1425055914e+01
2.1709664320e+03 2.1425075855e+01
2.1816850566e+03 2.1425095899e+01
2.1924036813e+03 2.1425116849e+01
2.2031223060e+03 2.1425137512e+01
2.2138409307e+03 2.1425158740e+01
2.2245595554e+03 2.1425179348e+01
2.2352781801e+03 2.1425200284e+01
2.2459968048e+03 2.1425220372e+01
2.2567154295e+03 2.1425240635e+01
2.2674340542e+03 2.1425259924e+01
2.2781526788e+03 2.1425279383e+01
2.2888713035e+03 2.1425297907e+01
2.2995899282e+03 2.1425316723e+01
2.3103085529e+03 2.1425334712e+01
2.3210271776e+03 2.1425353131e+01
2.3317458023e+03 2.1425370855e+01
2.3424644270e+03 2.1425389161e+01
2.3531830517e+03 2.1425406927e+01
2.3639016763e+03 2.1425425396e+01
2.3746203010e+03 2.1425443418e+01
2.3853389257e+03 2.1425462144e+01
2.3960575504e+03 2.1425480359e+01
2.4067761751e+03 2.1425499103e+01
2.4174947998e+03 2.1425517135e+01
2.4282134245e+03 2.1425535513e+01
2.4389320492e+03 2.1425553090e+01
2.4496506739e+03 2.1425571046e+01
2.4603692985e+03 2.1425588302e+01
2.4710879232e+03 2.1425606114e+01
2.4818065479e+03 2.1425623385e+01
2.4925251726e+03 2.1425641476e+01
2.5032437973e+03 2.1425659290e+01
2.5139624220e+03 2.1425678387e+01
2.5246810467e+03 2.1425697626e+01
2.5353996714e+03 2.1425718636e+01
2.5461182960e+03 2.1425739959e+01
2.5568369207e+03 2.1425763054e+01
2.5675555454e+03 2.1425786067e+01
2.5782741701e+03 2.1425810338e+01
2.5889927948e+03 2.1425833829e+01
2.5997114195e+03 2.1425857896e+01
2.6104300442e+03 2.1425880529e+01
2.6211486689e+03 2.1425903182e+01
2.6318672935e+03 2.1425924117e+01
2.6425859182e+03 2.1425944935e+01
2.6533045429e+03 2.1425964340e+01
2.6640231676e+03 2.1425983879e+01
2.6747417923e+03 2.1426002723e+01
2.6854604170e+03 2.1426021930e+01
2.6961790417e+03 2.1426041228e+01
2.7068976664e+03 2.1426060645e+01
2.7176162911e+03 2.1426080598e+01
2.7283349157e+03 2.1426099434e+01
2.7390535404e+03 2.1426117988e+01
2.7497721651e+03 2.1426132026e+01
2.7604907898e+03 2.1426141989e+01
