# Mean flow yaw angle vs inner units (degrees)
# Columns: y_plus    Phi_deg
3.9100267708e-01 1.6770311629e+01
1.1669246953e+00 1.6778285451e+01
1.9435303622e+00 1.6781965208e+01
2.7210037404e+00 1.6783083901e+01
3.4995481111e+00 1.6782539038e+01
4.2793829765e+00 1.6780990099e+01
5.0607410474e+00 1.6778853448e+01
5.8438654524e+00 1.6776365894e+01
6.6290073199e+00 1.6773603588e+01
7.4164238012e+00 1.6770544159e+01
8.2063765381e+00 1.6767089137e+01
8.9991305383e+00 1.6763143414e+01
9.7949533913e+00 1.6758654682e+01
1.0594114757e+01 1.6753666714e+01
1.1396886058e+01 1.6748298100e+01
1.2203540314e+01 1.6742718151e+01
1.3014352078e+01 1.6737076065e+01
1.3829597436e+01 1.6731470838e+01
1.4649554046e+01 1.6725923653e+01
1.5474501205e+01 1.6720402189e+01
1.6304719923e+01 1.6714832305e+01
1.7140493017e+01 1.6709128755e+01
1.7982105198e+01 1.6703198429e+01
1.8829843169e+01 1.6696958257e+01
1.9683995721e+01 1.6690332675e+01
2.0544853828e+01 1.6683266860e+01
2.1412710751e+01 1.6675723167e+01
2.2287862134e+01 1.6667692346e+01
2.3170606107e+01 1.6659185891e+01
2.4061243385e+01 1.6650233957e+01
2.4960077373e+01 1.6640865109e+01
2.5867414268e+01 1.6631103832e+01
2.6783563163e+01 1.6620967033e+01
2.7708836155e+01 1.6610477629e+01
2.8643548447e+01 1.6599665583e+01
2.9588018458e+01 1.6588574710e+01
3.0542567932e+01 1.6577256478e+01
3.1507522046e+01 1.6565768807e+01
3.2483209521e+01 1.6554163454e+01
3.3469962736e+01 1.6542481980e+01
3.4468117838e+01 1.6530749948e+01
3.5478014859e+01 1.6518983896e+01
3.6499997830e+01 1.6507191724e+01
3.7534414901e+01 1.6495373832e+01
3.8581618456e+01 1.6483518033e+01
3.9641965236e+01 1.6471608509e+01
4.0715816460e+01 1.6459631125e+01
4.1803537945e+01 1.6447569403e+01
4.2905500235e+01 1.6435381597e+01
4.4022078725e+01 1.6422989906e+01
4.5153653789e+01 1.6410291521e+01
4.6300610910e+01 1.6397189695e+01
4.7463340810e+01 1.6383613391e+01
4.8642239585e+01 1.6369530252e+01
4.9837708839e+01 1.6354952410e+01
5.1050155822e+01 1.6339935047e+01
5.2279993564e+01 1.6324559075e+01
5.3527641025e+01 1.6308918420e+01
5.4793523226e+01 1.6293111359e+01
5.6078071405e+01 1.6277227323e+01
5.7381723156e+01 1.6261328138e+01
5.8704922581e+01 1.6245447193e+01
6.0048120441e+01 1.6229601714e+01
6.1411774312e+01 1.6213799141e+01
6.2796348734e+01 1.6198029138e+01
6.4202315379e+01 1.6182266419e+01
6.5630153203e+01 1.6166495029e+01
6.7080348613e+01 1.6150726561e+01
6.8553395635e+01 1.6134983566e+01
7.0049796075e+01 1.6119264115e+01
7.1570059699e+01 1.6103533871e+01
7.3114704399e+01 1.6087754215e+01
7.4684256376e+01 1.6071910813e+01
7.6279250313e+01 1.6056017294e+01
7.7900229560e+01 1.6040080966e+01
7.9547746322e+01 1.6024079701e+01
8.1222361842e+01 1.6007983812e+01
8.2924646595e+01 1.5991772188e+01
8.4655180482e+01 1.5975423818e+01
8.6414553026e+01 1.5958919204e+01
8.8203363577e+01 1.5942274870e+01
9.0022221510e+01 1.5925557531e+01
9.1871746439e+01 1.5908824095e+01
9.3752568424e+01 1.5892045787e+01
9.5665328185e+01 1.5875138980e+01
9.7610677324e+01 1.5858073383e+01
9.9589278544e+01 1.5840885381e+01
1.0160180588e+02 1.5823605026e+01
1.0364894491e+02 1.5806227814e+01
1.0573139302e+02 1.5788731662e+01
1.0784985962e+02 1.5771140239e+01
1.1000506638e+02 1.5753600751e+01
1.1219774750e+02 1.5736282458e+01
1.1442864993e+02 1.5719187664e+01
1.1669853366e+02 1.5702196307e+01
1.1900817195e+02 1.5685246187e+01
1.2135835159e+02 1.5668280898e+01
1.2374987321e+02 1.5651045953e+01
1.2618355149e+02 1.5633240614e+01
1.2866021550e+02 1.5614774653e+01
1.3118070893e+02 1.5595682806e+01
1.3374589042e+02 1.5576033707e+01
1.3635663383e+02 1.5555991344e+01
1.3901382852e+02 1.5535747986e+01
1.4171837970e+02 1.5515336493e+01
1.4447120871e+02 1.5494713128e+01
1.4727325332e+02 1.5473912084e+01
1.5012546808e+02 1.5452784473e+01
1.5302882462e+02 1.5430912122e+01
1.5598431200e+02 1.5408070239e+01
1.5899293705e+02 1.5384349606e+01
1.6205572468e+02 1.5359773619e+01
1.6517371825e+02 1.5334314716e+01
1.6834797995e+02 1.5308096664e+01
1.7157959112e+02 1.5281338408e+01
1.7486965264e+02 1.5254247433e+01
1.7821928531e+02 1.5226975715e+01
1.8162963021e+02 1.5199523403e+01
1.8510184912e+02 1.5171632718e+01
1.8863712487e+02 1.5143052811e+01
1.9223666179e+02 1.5113782661e+01
1.9590168612e+02 1.5083810966e+01
1.9963344636e+02 1.5053336069e+01
2.0343321380e+02 1.5022710245e+01
2.0730228285e+02 1.4992154843e+01
2.1124197156e+02 1.4961741828e+01
2.1525362201e+02 1.4931256099e+01
2.1933860083e+02 1.4900477290e+01
2.2349829959e+02 1.4869431090e+01
2.2773413535e+02 1.4837884539e+01
2.3204755109e+02 1.4805653530e+01
2.3644001621e+02 1.4772614172e+01
2.4091302705e+02 1.4738640962e+01
2.4546810739e+02 1.4703844095e+01
2.5010680897e+02 1.4668363793e+01
2.5483071201e+02 1.4632478642e+01
2.5964142574e+02 1.4596025329e+01
2.6454058900e+02 1.4559042004e+01
2.6952987074e+02 1.4521773152e+01
2.7461097059e+02 1.4484401142e+01
2.7978561950e+02 1.4447319973e+01
2.8505558025e+02 1.4410505752e+01
2.9042264812e+02 1.4374333055e+01
2.9588865145e+02 1.4338731519e+01
3.0145545230e+02 1.4303120034e+01
3.0712494704e+02 1.4267364491e+01
3.1289906706e+02 1.4232100255e+01
3.1877977936e+02 1.4197496302e+01
3.2476908727e+02 1.4163001657e+01
3.3086903110e+02 1.4128222682e+01
3.3708168886e+02 1.4092750299e+01
3.4340917693e+02 1.4056949455e+01
3.4985365079e+02 1.4021444017e+01
3.5641730571e+02 1.3986792400e+01
3.6310237742e+02 1.3953238876e+01
3.6991114271e+02 1.3920633138e+01
3.7684591986e+02 1.3888783218e+01
3.8390906882e+02 1.3857727897e+01
3.9110299071e+02 1.3827559005e+01
3.9843012636e+02 1.3798740679e+01
4.0589295306e+02 1.3771894882e+01
4.1349397829e+02 1.3746936946e+01
4.2123572889e+02 1.3723492760e+01
4.2912073304e+02 1.3701515717e+01
4.3715149217e+02 1.3681243876e+01
4.4533043852e+02 1.3663030888e+01
4.5365987429e+02 1.3646683413e+01
4.6214188770e+02 1.3632248961e+01
4.7077824235e+02 1.3619765950e+01
4.7957023817e+02 1.3609279208e+01
4.8851854519e+02 1.3600393235e+01
4.9762301594e+02 1.3592697868e+01
5.0688248733e+02 1.3586329987e+01
5.1629458829e+02 1.3581218951e+01
5.2585557360e+02 1.3577162496e+01
5.3556020708e+02 1.3573939630e+01
5.4540171575e+02 1.3571417821e+01
5.5537183282e+02 1.3569353835e+01
5.6546093828e+02 1.3567736317e+01
5.7565829575e+02 1.3566620147e+01
5.8595237151e+02 1.3565976923e+01
5.9633121136e+02 1.3565575576e+01
6.0678284256e+02 1.3565323014e+01
6.1729566514e+02 1.3565199137e+01
6.2785879892e+02 1.3565087137e+01
6.3846235889e+02 1.3564951124e+01
6.4909764242e+02 1.3564831739e+01
6.5975722295e+02 1.3564739841e+01
6.7043495588e+02 1.3564679016e+01
6.8112591136e+02 1.3564658746e+01
6.9182625336e+02 1.3564662382e+01
7.0253308669e+02 1.3564664939e+01
7.1324429176e+02 1.3564661238e+01
7.2395836319e+02 1.3564657334e+01
7.3467426374e+02 1.3564650398e+01
7.4539130004e+02 1.3564637894e+01
7.5610902239e+02 1.3564623238e+01
7.6682714778e+02 1.3564607996e+01
7.7754550345e+02 1.3564594426e+01
7.8826398703e+02 1.3564582312e+01
7.9898253968e+02 1.3564570658e+01
8.0970112858e+02 1.3564558836e+01
8.2041973597e+02 1.3564547267e+01
8.3113835253e+02 1.3564535852e+01
8.4185697350e+02 1.3564524817e+01
8.5257559653e+02 1.3564513914e+01
8.6329422051e+02 1.3564503157e+01
8.7401284489e+02 1.3564492149e+01
8.8473146946e+02 1.3564480876e+01
8.9545009410e+02 1.3564469109e+01
9.0616871877e+02 1.3564457032e+01
9.1688734345e+02 1.3564444743e+01
9.2760596814e+02 1.3564432521e+01
9.3832459282e+02 1.3564420527e+01
9.4904321751e+02 1.3564408936e+01
9.5976184220e+02 1.3564397794e+01
9.7048046689e+02 1.3564387164e+01
9.8119909158e+02 1.3564376987e+01
9.9191771626e+02 1.3564367174e+01
1.0026363410e+03 1.3564357621e+01
1.0133549656e+03 1.3564348166e+01
1.0240735903e+03 1.3564338829e+01
1.0347922150e+03 1.3564329467e+01
1.0455108397e+03 1.3564320150e+01
1.0562294644e+03 1.3564310670e+01
1.0669480891e+03 1.3564301081e+01
1.0776667138e+03 1.3564291184e+01
1.0883853385e+03 1.3564281112e+01
1.0991039631e+03 1.3564270741e+01
1.1098225878e+03 1.3564260312e+01
1.1205412125e+03 1.3564249771e+01
1.1312598372e+03 1.3564239387e+01
1.1419784619e+03 1.3564229055e+01
1.1526970866e+03 1.3564218936e+01
1.1634157113e+03 1.3564208812e+01
1.1741343360e+03 1.3564198744e+01
1.1848529607e+03 1.3564188497e+01
1.1955715853e+03 1.3564178174e+01
1.2062902100e+03 1.3564167658e+01
1.2170088347e+03 1.3564157174e+01
1.2277274594e+03 1.3564146690e+01
1.2384460841e+03 1.3564136460e+01
1.2491647088e+03 1.3564126424e+01
1.2598833335e+03 1.3564116782e+01
1.2706019582e+03 1.3564107413e+01
1.2813205828e+03 1.3564098451e+01
1.2920392075e+03 1.3564089733e+01
1.3027578322e+03 1.3564081356e+01
1.3134764569e+03 1.3564073164e+01
1.3241950816e+03 1.3564065257e+01
1.3349137063e+03 1.3564057493e+01
1.3456323310e+03 1.3564049957e+01
1.3563509557e+03 1.3564042511e+01
1.3670695803e+03 1.3564035203e+01
1.3777882050e+03 1.3564027878e+01
1.3885068297e+03 1.3564020528e+01
1.3992254544e+03 1.3564013011e+01
1.4099440791e+03 1.3564005330e+01
1.4206627038e+03 1.3563997401e+01
1.4313813285e+03 1.3563989231e+01
1.4420999532e+03 1.3563980751e+01
1.4528185779e+03 1.3563971972e+01
1.4635372025e+03 1.3563962874e+01
1.4742558272e+03 1.3563953508e+01
1.4849744519e+03 1.3563943865e+01
1.4956930766e+03 1.3563933945e+01
1.5064117013e+03 1.3563923659e+01
1.5171303260e+03 1.3563912958e+01
1.5278489507e+03 1.3563901781e+01
1.5385675754e+03 1.3563890207e+01
1.5492862000e+03 1.3563878336e+01
1.5600048247e+03 1.3563866406e+01
1.5707234494e+03 1.3563854581e+01
1.5814420741e+03 1.3563843092e+01
1.5921606988e+03 1.3563831998e+01
1.6028793235e+03 1.3563821451e+01
1.6135979482e+03 1.3563811406e+01
1.6243165729e+03 1.3563801974e+01
1.6350351976e+03 1.3563793010e+01
1.6457538222e+03 1.3563784577e+01
1.6564724469e+03 1.3563776419e+01
1.6671910716e+03 1.3563768592e+01
1.6779096963e+03 1.3563760794e+01
1.6886283210e+03 1.3563753170e+01
1.6993469457e+03 1.3563745439e+01
1.7100655704e+03 1.3563737845e+01
1.7207841951e+03 1.3563730107e+01
1.7315028197e+03 1.3563722515e+01
1.7422214444e+03 1.3563714780e+01
1.7529400691e+03 1.3563707230e+01
1.7636586938e+03 1.3563699619e+01
1.7743773185e+03 1.3563692308e+01
1.7850959432e+03 1.3563685074e+01
1.7958145679e+03 1.3563678215e+01
1.8065331926e+03 1.3563671459e+01
1.8172518173e+03 1.3563664979e+01
1.8279704419e+03 1.3563658450e+01
1.8386890666e+03 1.3563651952e+01
1.8494076913e+03 1.3563645134e+01
1.8601263160e+03 1.3563638014e+01
1.8708449407e+03 1.3563630266e+01
1.8815635654e+03 1.3563621931e+01
1.8922821901e+03 1.3563612823e+01
1.9030008148e+03 1.3563603128e+01
1.9137194394e+03 1.3563592870e+01
1.9244380641e+03 1.3563582360e+01
1.9351566888e+03 1.3563571737e+01
1.9458753135e+03 1.3563561267e+01
1.9565939382e+03 1.3563551034e+01
1.9673125629e+03 1.3563541167e+01
1.9780311876e+03 1.3563531671e+01
1.9887498123e+03 1.3563522607e+01
1.9994684369e+03 1.3563513954e+01
2.0101870616e+03 1.3563505771e+01
2.0209056863e+03 1.3563497970e+01
2.0316243110e+03 1.3563490592e+01
2.0423429357e+03 1.3563483416e+01
2.0530615604e+03 1.3563476460e+01
2.0637801851e+03 1.3563469330e+01
2.0744988098e+03 1.3563462057e+01
2.0852174345e+03 1.3563454146e+01
2.0959360591e+03 1.3563445773e+01
2.1066546838e+03 1.3563436486e+01
2.1173733085e+03 1.3563426694e+01
2.1280919332e+03 1.3563415994e+01
2.1388105579e+03 1.3563404941e+01
2.1495291826e+03 1.3563393068e+01
2.1602478073e+03 1.3563380974e+01
2.1709664320e+03 1.3563368129e+01
2.1816850566e+03 1.3563355227e+01
2.1924036813e+03 1.3563341748e+01
2.2031223060e+03 1.3563328468e+01
2.2138409307e+03 1.3563314829e+01
2.2245595554e+03 1.3563301605e+01
2.2352781801e+03 1.3563288172e+01
2.2459968048e+03 1.3563275303e+01
2.2567154295e+03 1.3563262323e+01
2.2674340542e+03 1.3563249992e+01
2.2781526788e+03 1.3563237553e+01
2.2888713035e+03 1.3563225738e+01
2.2995899282e+03 1.3563213732e+01
2.3103085529e+03 1.3563202276e+01
2.3210271776e+03 1.3563190534e+01
2.3317458023e+03 1.3563179249e+01
2.3424644270e+03 1.3563167577e+01
2.3531830517e+03 1.3563156253e+01
2.3639016763e+03 1.3563144467e+01
2.3746203010e+03 1.3563132961e+01
2.3853389257e+03 1.3563120997e+01
2.3960575504e+03 1.3563109351e+01
2.4067761751e+03 1.3563097369e+01
2.4174947998e+03 1.3563085832e+01
2.4282134245e+03 1.3563074086e+01
2.4389320492e+03 1.3563062840e+01
2.4496506739e+03 1.3563051369e+01
2.4603692985e+03 1.3563040335e+01
2.4710879232e+03 1.3563028962e+01
2.4818065479e+03 1.3563017927e+01
2.4925251726e+03 1.3563006379e+01
2.5032437973e+03 1.3562994999e+01
2.5139624220e+03 1.3562982801e+01
2.5246810467e+03 1.3562970505e+01
2.5353996714e+03 1.3562957067e+01
2.5461182960e+03 1.3562943428e+01
2.5568369207e+03 1.3562928638e+01
2.5675555454e+03 1.3562913909e+01
2.5782741701e+03 1.3562898351e+01
2.5889927948e+03 1.3562883304e+01
2.5997114195e+03 1.3562867860e+01
2.6104300442e+03 1.3562853343e+01
2.6211486689e+03 1.3562838781e+01
2.6318672935e+03 1.3562825326e+01
2.6425859182e+03 1.3562811908e+01
2.6533045429e+03 1.3562799396e+01
2.6640231676e+03 1.3562786760e+01
2.6747417923e+03 1.3562774564e+01
2.6854604170e+03 1.3562762101e+01
2.6961790417e+03 1.3562749574e+01
2.7068976664e+03 1.3562736953e+01
2.7176162911e+03 1.3562723989e+01
2.7283349157e+03 1.3562711771e+01
2.7390535404e+03 1.3562699769e+01
2.7497721651e+03 1.3562690801e+01
2.7604907898e+03 1.3562684474e+01
