# Rotated two-point auto-correlation R_11^R (mean-aligned) — case DNS_re250_mr00_11 (MR00), y^+ = 15
# Definition: R_{ij}^R is computed by rotating (x,z) into the local mean-flow frame.
# Columns: delta_z_plus    R
0.0000000000e+00 1.0000000000e+00
3.5851299881e+00 9.6777046347e-01
7.1702599761e+00 8.8194794975e-01
1.0755389964e+01 7.6514339806e-01
1.4340519952e+01 6.3748459260e-01
1.7925649940e+01 5.1213506837e-01
2.1510779928e+01 3.9650040550e-01
2.5095909916e+01 2.9424489102e-01
2.8681039904e+01 2.0675353596e-01
3.2266169893e+01 1.3399656404e-01
3.5851299881e+01 7.5046566939e-02
3.9436429869e+01 2.8478419086e-02
4.3021559857e+01 -7.3538881956e-03
4.6606689845e+01 -3.4123363655e-02
5.0191819833e+01 -5.3404795273e-02
5.3776949821e+01 -6.6634851679e-02
5.7362079809e+01 -7.5120519702e-02
6.0947209797e+01 -8.0011176199e-02
6.4532339785e+01 -8.2242382682e-02
6.8117469773e+01 -8.2564369794e-02
7.1702599761e+01 -8.1588948521e-02
7.5287729749e+01 -7.9766913819e-02
7.8872859737e+01 -7.7379224239e-02
8.2457989725e+01 -7.4575920071e-02
8.6043119713e+01 -7.1454808276e-02
8.9628249701e+01 -6.8167889430e-02
9.3213379690e+01 -6.4944725235e-02
9.6798509678e+01 -6.2000261457e-02
1.0038363967e+02 -5.9443511376e-02
1.0396876965e+02 -5.7279899633e-02
1.0755389964e+02 -5.5472553968e-02
1.1113902963e+02 -5.3977600629e-02
1.1472415962e+02 -5.2737331427e-02
1.1830928961e+02 -5.1686763568e-02
1.2189441959e+02 -5.0768278767e-02
1.2547954958e+02 -4.9911871399e-02
1.2906467957e+02 -4.9028901665e-02
1.3264980956e+02 -4.8054197027e-02
1.3623493955e+02 -4.6977039594e-02
1.3982006953e+02 -4.5819814249e-02
1.4340519952e+02 -4.4617357080e-02
1.4699032951e+02 -4.3414859052e-02
1.5057545950e+02 -4.2254020167e-02
1.5416058949e+02 -4.1168836814e-02
1.5774571947e+02 -4.0192900618e-02
1.6133084946e+02 -3.9348788014e-02
1.6491597945e+02 -3.8644878457e-02
1.6850110944e+02 -3.8073556214e-02
1.7208623943e+02 -3.7602309128e-02
1.7567136941e+02 -3.7180140300e-02
1.7925649940e+02 -3.6761059922e-02
1.8284162939e+02 -3.6314325348e-02
1.8642675938e+02 -3.5814850867e-02
1.9001188937e+02 -3.5229198140e-02
1.9359701936e+02 -3.4529682465e-02
1.9718214934e+02 -3.3723614523e-02
2.0076727933e+02 -3.2844686735e-02
2.0435240932e+02 -3.1906712462e-02
2.0793753931e+02 -3.0880747398e-02
2.1152266930e+02 -2.9731056113e-02
2.1510779928e+02 -2.8468223143e-02
2.1869292927e+02 -2.7140356727e-02
2.2227805926e+02 -2.5774361495e-02
2.2586318925e+02 -2.4376826519e-02
2.2944831924e+02 -2.2965179057e-02
2.3303344922e+02 -2.1556810057e-02
2.3661857921e+02 -2.0172315462e-02
2.4020370920e+02 -1.8877610722e-02
2.4378883919e+02 -1.7796388512e-02
2.4737396918e+02 -1.7049949075e-02
2.5095909916e+02 -1.6695736151e-02
2.5454422915e+02 -1.6718703666e-02
2.5812935914e+02 -1.7032764899e-02
2.6171448913e+02 -1.7498366362e-02
2.6529961912e+02 -1.7951646829e-02
2.6888474910e+02 -1.8225046778e-02
2.7246987909e+02 -1.8186016415e-02
2.7605500908e+02 -1.7784990931e-02
2.7964013907e+02 -1.7082286180e-02
2.8322526906e+02 -1.6220295532e-02
2.8681039904e+02 -1.5353480134e-02
2.9039552903e+02 -1.4594773019e-02
2.9398065902e+02 -1.3993234362e-02
2.9756578901e+02 -1.3524257073e-02
3.0115091900e+02 -1.3083379155e-02
3.0473604898e+02 -1.2518087422e-02
3.0832117897e+02 -1.1701661813e-02
3.1190630896e+02 -1.0599164678e-02
3.1549143895e+02 -9.2891572802e-03
3.1907656894e+02 -7.9370540104e-03
3.2266169893e+02 -6.7276558830e-03
3.2624682891e+02 -5.7857693945e-03
3.2983195890e+02 -5.1506027109e-03
3.3341708889e+02 -4.8041143272e-03
3.3700221888e+02 -4.6927086328e-03
3.4058734887e+02 -4.7482009135e-03
3.4417247885e+02 -4.9201250562e-03
3.4775760884e+02 -5.1955608400e-03
3.5134273883e+02 -5.5777715894e-03
3.5492786882e+02 -6.0682607861e-03
3.5851299881e+02 -6.6854183494e-03
3.6209812879e+02 -7.4633003621e-03
3.6568325878e+02 -8.4223168788e-03
3.6926838877e+02 -9.5384968737e-03
3.7285351876e+02 -1.0724549307e-02
3.7643864875e+02 -1.1829573819e-02
3.8002377873e+02 -1.2677469099e-02
3.8360890872e+02 -1.3138223332e-02
3.8719403871e+02 -1.3160472474e-02
3.9077916870e+02 -1.2763725360e-02
3.9436429869e+02 -1.2016261017e-02
3.9794942867e+02 -1.1017227123e-02
4.0153455866e+02 -9.8835149981e-03
4.0511968865e+02 -8.7063237354e-03
4.0870481864e+02 -7.5123980380e-03
4.1228994863e+02 -6.2822320561e-03
4.1587507861e+02 -5.0051720627e-03
4.1946020860e+02 -3.7279813558e-03
4.2304533859e+02 -2.5630865974e-03
4.2663046858e+02 -1.6219180185e-03
4.3021559857e+02 -9.2830913200e-04
4.3380072855e+02 -4.1885420211e-04
4.3738585854e+02 -1.6876289661e-05
4.4097098853e+02 3.2274061850e-04
4.4455611852e+02 6.3759180493e-04
4.4814124851e+02 9.9143871760e-04
4.5172637850e+02 1.4621576981e-03
4.5531150848e+02 2.0785710987e-03
